98,2024-02-28 19:20:42.811898
104,89,2024-02-28 19:20:42.812899
92,102,2024-02-28 19:20:42.813898
103,115,2024-02-28 19:20:42.813898
120,119,2024-02-28 19:20:42.814899
123,121,2024-02-28 19:20:42.815899
115,117,2024-02-28 19:20:42.816900
117,118,2024-02-28 19:20:42.817899
117,121,2024-02-28 19:20:42.817899
119,120,2024-02-28 19:20:42.818900
120,121,2024-02-28 19:20:42.819900
117,116,2024-02-28 19:20:42.820901
113,113,2024-02-28 19:20:42.820901
111,117,2024-02-28 19:20:42.821899
108,116,2024-02-28 19:20:42.822900
106,116,2024-02-28 19:20:42.822900
103,117,2024-02-28 19:20:42.823901
103,118,2024-02-28 19:20:42.824902
105,114,2024-02-28 19:20:42.824902
106,109,2024-02-28 19:20:42.825900
108,110,2024-02-28 19:20:42.826901
110,103,2024-02-28 19:20:42.834906
109,68,2024-02-28 19:20:42.835906
74,84,2024-02-28 19:20:42.836906
87,98,2024-02-28 19:20:42.838907
100,98,2024-02-28 19:20:42.839906
99,109,2024-02-28 19:20:42.840907
117,113,2024-02-28 19:20:42.841906
131,112,2024-02-28 19:20:42.843907
132,112,2024-02-28 19:20:42.844906
136,114,2024-02-28 19:20:42.846907
137,116,2024-02-28 19:20:42.847908
104,2024-02-28 19:20:42.848909
110,98,2024-02-28 19:20:42.850908
95,111,2024-02-28 19:20:42.851910
104,130,2024-02-28 19:20:42.853909
119,128,2024-02-28 19:20:42.854910
115,123,2024-02-28 19:20:42.855908
116,125,2024-02-28 19:20:42.856910
119,126,2024-02-28 19:20:42.857911
117,124,2024-02-28 19:20:42.858911
116,125,2024-02-28 19:20:42.860911
116,127,2024-02-28 19:20:42.861912
115,125,2024-02-28 19:20:42.862949
112,124,2024-02-28 19:20:42.864260
109,121,2024-02-28 19:20:42.865309
106,117,2024-02-28 19:20:42.866307
105,114,2024-02-28 19:20:42.867308
108,110,2024-02-28 19:20:42.868758
108,107,2024-02-28 19:20:42.869840
105,107,2024-02-28 19:20:42.870869
107,100,2024-02-28 19:20:42.871945
107,73,2024-02-28 19:20:42.873263
79,66,2024-02-28 19:20:42.873263
66,62,2024-02-28 19:20:42.874288
68,102,2024-02-28 19:20:42.875300
114,112,2024-02-28 19:20:42.876332
138,109,2024-02-28 19:20:42.877639
142,107,2024-02-28 19:20:42.878650
139,105,2024-02-28 19:20:42.879650
137,104,2024-02-28 19:20:42.880708
133,105,2024-02-28 19:20:42.881717
131,108,2024-02-28 19:20:42.883035
123,109,2024-02-28 19:20:42.884089
95,2024-02-28 19:20:42.886100
94,91,2024-02-28 19:20:42.887107
81,105,2024-02-28 19:20:42.888126
93,124,2024-02-28 19:20:42.888126
115,122,2024-02-28 19:20:42.889141
122,121,2024-02-28 19:20:42.890154
122,120,2024-02-28 19:20:42.891165
121,122,2024-02-28 19:20:42.892166
119,121,2024-02-28 19:20:42.893176
115,121,2024-02-28 19:20:42.894433
111,121,2024-02-28 19:20:42.895445
111,124,2024-02-28 19:20:42.896474
110,122,2024-02-28 19:20:42.897488
111,120,2024-02-28 19:20:42.898688
112,117,2024-02-28 19:20:42.900135
105,117,2024-02-28 19:20:42.901136
99,117,2024-02-28 19:20:42.902183
104,111,2024-02-28 19:20:42.903349
101,70,2024-02-28 19:20:42.904363
60,53,2024-02-28 19:20:42.905537
44,98,2024-02-28 19:20:42.905537
95,110,2024-02-28 19:20:42.906543
122,122,2024-02-28 19:20:42.908053
140,127,2024-02-28 19:20:42.909489
151,126,2024-02-28 19:20:42.910931
149,128,2024-02-28 19:20:42.912126
145,128,2024-02-28 19:20:42.913197
140,128,2024-02-28 19:20:42.914212
130,127,2024-02-28 19:20:42.914212
120,123,2024-02-28 19:20:42.915230
113,124,2024-02-28 19:20:42.917243
110,120,2024-02-28 19:20:42.918244
102,2024-02-28 19:20:42.920247
88,91,2024-02-28 19:20:42.921246
80,101,2024-02-28 19:20:42.923247
92,120,2024-02-28 19:20:42.924245
111,119,2024-02-28 19:20:42.926247
117,115,2024-02-28 19:20:42.927369
119,106,2024-02-28 19:20:42.928615
118,106,2024-02-28 19:20:42.929651
118,108,2024-02-28 19:20:42.930767
117,112,2024-02-28 19:20:42.931871
115,111,2024-02-28 19:20:42.933306
111,112,2024-02-28 19:20:42.934446
109,110,2024-02-28 19:20:42.935460
104,108,2024-02-28 19:20:42.936556
104,109,2024-02-28 19:20:42.937597
106,102,2024-02-28 19:20:42.938611
105,61,2024-02-28 19:20:42.939625
67,46,2024-02-28 19:20:42.939625
45,94,2024-02-28 19:20:42.940635
90,107,2024-02-28 19:20:42.941773
116,115,2024-02-28 19:20:42.943806
137,116,2024-02-28 19:20:42.944820
146,116,2024-02-28 19:20:42.945883
146,114,2024-02-28 19:20:42.946992
143,108,2024-02-28 19:20:42.948011
139,104,2024-02-28 19:20:42.949312
133,104,2024-02-28 19:20:42.950325
127,106,2024-02-28 19:20:42.950325
119,112,2024-02-28 19:20:42.951350
107,116,2024-02-28 19:20:42.952429
98,114,2024-02-28 19:20:42.953730
94,115,2024-02-28 19:20:42.954823
101,2024-02-28 19:20:42.955873
73,95,2024-02-28 19:20:42.956891
68,107,2024-02-28 19:20:42.956891
85,125,2024-02-28 19:20:42.957923
112,125,2024-02-28 19:20:42.958936
127,124,2024-02-28 19:20:42.960078
134,124,2024-02-28 19:20:42.961121
133,124,2024-02-28 19:20:42.962292
132,124,2024-02-28 19:20:42.963307
132,122,2024-02-28 19:20:42.963307
129,121,2024-02-28 19:20:42.965579
124,118,2024-02-28 19:20:42.965579
118,124,2024-02-28 19:20:42.966679
113,121,2024-02-28 19:20:42.967725
104,78,2024-02-28 19:20:42.968794
58,52,2024-02-28 19:20:42.969872
37,98,2024-02-28 19:20:42.970922
81,112,2024-02-28 19:20:42.971993
102,123,2024-02-28 19:20:42.973026
126,128,2024-02-28 19:20:42.974143
141,130,2024-02-28 19:20:42.975157
144,128,2024-02-28 19:20:42.976214
143,128,2024-02-28 19:20:42.977227
139,126,2024-02-28 19:20:42.978251
129,121,2024-02-28 19:20:42.979264
123,121,2024-02-28 19:20:42.980606
115,121,2024-02-28 19:20:42.980606
109,118,2024-02-28 19:20:42.981657
106,108,2024-02-28 19:20:42.982679
102,102,2024-02-28 19:20:42.983838
106,100,2024-02-28 19:20:42.984920
107,96,2024-02-28 19:20:42.985941
75,2024-02-28 19:20:42.987111
90,68,2024-02-28 19:20:42.988265
78,81,2024-02-28 19:20:42.989397
86,103,2024-02-28 19:20:42.990410
111,104,2024-02-28 19:20:42.991488
119,103,2024-02-28 19:20:42.992541
121,104,2024-02-28 19:20:42.993606
125,105,2024-02-28 19:20:42.994625
124,107,2024-02-28 19:20:42.995953
122,110,2024-02-28 19:20:42.996977
119,115,2024-02-28 19:20:42.996977
119,116,2024-02-28 19:20:42.998007
116,73,2024-02-28 19:20:42.999183
74,53,2024-02-28 19:20:43.000227
51,102,2024-02-28 19:20:43.001692
92,119,2024-02-28 19:20:43.002720
112,130,2024-02-28 19:20:43.003799
132,139,2024-02-28 19:20:43.004879
138,139,2024-02-28 19:20:43.005951
136,138,2024-02-28 19:20:43.006964
136,138,2024-02-28 19:20:43.007963
135,138,2024-02-28 19:20:43.007963
129,137,2024-02-28 19:20:43.009271
121,137,2024-02-28 19:20:43.011341
118,137,2024-02-28 19:20:43.012352
113,131,2024-02-28 19:20:43.013363
108,128,2024-02-28 19:20:43.014424
108,128,2024-02-28 19:20:43.015515
104,125,2024-02-28 19:20:43.016593
102,121,2024-02-28 19:20:43.017606
100,113,2024-02-28 19:20:43.018618
102,109,2024-02-28 19:20:43.019737
86,2024-02-28 19:20:43.019737
89,72,2024-02-28 19:20:43.020770
81,84,2024-02-28 19:20:43.021809
94,101,2024-02-28 19:20:43.021809
119,100,2024-02-28 19:20:43.022820
126,101,2024-02-28 19:20:43.022820
123,101,2024-02-28 19:20:43.023933
121,101,2024-02-28 19:20:43.024934
121,102,2024-02-28 19:20:43.026937
122,100,2024-02-28 19:20:43.027934
120,59,2024-02-28 19:20:43.027934
77,39,2024-02-28 19:20:43.028934
56,84,2024-02-28 19:20:43.029935
99,97,2024-02-28 19:20:43.030935
121,108,2024-02-28 19:20:43.032201
139,113,2024-02-28 19:20:43.032201
141,114,2024-02-28 19:20:43.033235
136,118,2024-02-28 19:20:43.034248
132,125,2024-02-28 19:20:43.034248
124,127,2024-02-28 19:20:43.035442
120,129,2024-02-28 19:20:43.036454
117,133,2024-02-28 19:20:43.036454
112,133,2024-02-28 19:20:43.037650
106,129,2024-02-28 19:20:43.038663
107,123,2024-02-28 19:20:43.038663
105,122,2024-02-28 19:20:43.039727
100,120,2024-02-28 19:20:43.040783
100,118,2024-02-28 19:20:43.041786
105,117,2024-02-28 19:20:43.042804
106,117,2024-02-28 19:20:43.044254
107,113,2024-02-28 19:20:43.044254
108,112,2024-02-28 19:20:43.045267
98,2024-02-28 19:20:43.045267
90,94,2024-02-28 19:20:43.046525
81,102,2024-02-28 19:20:43.047537
95,114,2024-02-28 19:20:43.047537
117,111,2024-02-28 19:20:43.048626
120,110,2024-02-28 19:20:43.048626
120,113,2024-02-28 19:20:43.049968
125,112,2024-02-28 19:20:43.050980
124,77,2024-02-28 19:20:43.050980
83,66,2024-02-28 19:20:43.052111
65,79,2024-02-28 19:20:43.053124
78,111,2024-02-28 19:20:43.053124
116,125,2024-02-28 19:20:43.054192
142,131,2024-02-28 19:20:43.054192
153,133,2024-02-28 19:20:43.055520
153,129,2024-02-28 19:20:43.056535
142,128,2024-02-28 19:20:43.056535
131,127,2024-02-28 19:20:43.057613
124,122,2024-02-28 19:20:43.058867
118,120,2024-02-28 19:20:43.060087
111,118,2024-02-28 19:20:43.061131
109,117,2024-02-28 19:20:43.062133
108,114,2024-02-28 19:20:43.063132
103,112,2024-02-28 19:20:43.064131
100,113,2024-02-28 19:20:43.065132
102,112,2024-02-28 19:20:43.065132
100,107,2024-02-28 19:20:43.066132
99,104,2024-02-28 19:20:43.067132
106,101,2024-02-28 19:20:43.068132
110,95,2024-02-28 19:20:43.068132
110,94,2024-02-28 19:20:43.069132
111,97,2024-02-28 19:20:43.070132
77,2024-02-28 19:20:43.071133
92,69,2024-02-28 19:20:43.072133
85,80,2024-02-28 19:20:43.072133
99,98,2024-02-28 19:20:43.073133
120,101,2024-02-28 19:20:43.074134
124,102,2024-02-28 19:20:43.075133
122,68,2024-02-28 19:20:43.076445
83,51,2024-02-28 19:20:43.077603
58,99,2024-02-28 19:20:43.078602
100,116,2024-02-28 19:20:43.079602
124,130,2024-02-28 19:20:43.079602
142,136,2024-02-28 19:20:43.080603
146,137,2024-02-28 19:20:43.081603
144,141,2024-02-28 19:20:43.082603
138,139,2024-02-28 19:20:43.083603
133,137,2024-02-28 19:20:43.083603
123,134,2024-02-28 19:20:43.084603
119,131,2024-02-28 19:20:43.085605
111,130,2024-02-28 19:20:43.086604
107,126,2024-02-28 19:20:43.086604
104,123,2024-02-28 19:20:43.087605
103,122,2024-02-28 19:20:43.088605
106,118,2024-02-28 19:20:43.089627
102,116,2024-02-28 19:20:43.090604
106,115,2024-02-28 19:20:43.091611
106,115,2024-02-28 19:20:43.092612
109,116,2024-02-28 19:20:43.092612
113,115,2024-02-28 19:20:43.093638
115,114,2024-02-28 19:20:43.094619
113,114,2024-02-28 19:20:43.095620
112,116,2024-02-28 19:20:43.095620
109,114,2024-02-28 19:20:43.096619
95,2024-02-28 19:20:43.097620
94,84,2024-02-28 19:20:43.098621
84,91,2024-02-28 19:20:43.099620
91,111,2024-02-28 19:20:43.099620
109,75,2024-02-28 19:20:43.100620
76,52,2024-02-28 19:20:43.101621
56,98,2024-02-28 19:20:43.102621
103,117,2024-02-28 19:20:43.103621
124,127,2024-02-28 19:20:43.103621
143,131,2024-02-28 19:20:43.104621
155,129,2024-02-28 19:20:43.105626
154,129,2024-02-28 19:20:43.106640
146,127,2024-02-28 19:20:43.108154
136,127,2024-02-28 19:20:43.109165
129,127,2024-02-28 19:20:43.110166
125,122,2024-02-28 19:20:43.111163
119,120,2024-02-28 19:20:43.111163
113,117,2024-02-28 19:20:43.112164
111,113,2024-02-28 19:20:43.113164
105,116,2024-02-28 19:20:43.114164
104,115,2024-02-28 19:20:43.114164
105,115,2024-02-28 19:20:43.115164
102,110,2024-02-28 19:20:43.116165
101,103,2024-02-28 19:20:43.117167
98,103,2024-02-28 19:20:43.118167
98,103,2024-02-28 19:20:43.118167
102,98,2024-02-28 19:20:43.119166
103,96,2024-02-28 19:20:43.121169
106,95,2024-02-28 19:20:43.122169
108,93,2024-02-28 19:20:43.123167
113,90,2024-02-28 19:20:43.124168
116,86,2024-02-28 19:20:43.125166
67,2024-02-28 19:20:43.127436
92,58,2024-02-28 19:20:43.127436
80,38,2024-02-28 19:20:43.128434
56,39,2024-02-28 19:20:43.129435
55,92,2024-02-28 19:20:43.130434
106,109,2024-02-28 19:20:43.130434
129,119,2024-02-28 19:20:43.131435
149,129,2024-02-28 19:20:43.131435
159,136,2024-02-28 19:20:43.132879
155,138,2024-02-28 19:20:43.133932
148,137,2024-02-28 19:20:43.133932
141,139,2024-02-28 19:20:43.134944
132,142,2024-02-28 19:20:43.135955
122,140,2024-02-28 19:20:43.135955
114,135,2024-02-28 19:20:43.137336
110,134,2024-02-28 19:20:43.138347
107,132,2024-02-28 19:20:43.138347
105,133,2024-02-28 19:20:43.139393
105,129,2024-02-28 19:20:43.140404
102,125,2024-02-28 19:20:43.140404
99,119,2024-02-28 19:20:43.141415
99,116,2024-02-28 19:20:43.142433
100,110,2024-02-28 19:20:43.143577
103,110,2024-02-28 19:20:43.143577
106,111,2024-02-28 19:20:43.144585
110,111,2024-02-28 19:20:43.145611
110,110,2024-02-28 19:20:43.146613
114,105,2024-02-28 19:20:43.147613
117,102,2024-02-28 19:20:43.148612
115,101,2024-02-28 19:20:43.148612
112,106,2024-02-28 19:20:43.149612
114,101,2024-02-28 19:20:43.150612
58,2024-02-28 19:20:43.151615
56,42,2024-02-28 19:20:43.152613
32,90,2024-02-28 19:20:43.153613
79,123,2024-02-28 19:20:43.153613
123,130,2024-02-28 19:20:43.154612
137,128,2024-02-28 19:20:43.155613
140,132,2024-02-28 19:20:43.156614
144,132,2024-02-28 19:20:43.156614
145,128,2024-02-28 19:20:43.157613
143,125,2024-02-28 19:20:43.158614
136,123,2024-02-28 19:20:43.159614
125,122,2024-02-28 19:20:43.160614
115,118,2024-02-28 19:20:43.161614
110,114,2024-02-28 19:20:43.161614
106,118,2024-02-28 19:20:43.162614
107,115,2024-02-28 19:20:43.163615
107,113,2024-02-28 19:20:43.164615
108,107,2024-02-28 19:20:43.165615
105,100,2024-02-28 19:20:43.166615
101,102,2024-02-28 19:20:43.167891
107,98,2024-02-28 19:20:43.168909
110,98,2024-02-28 19:20:43.169923
113,99,2024-02-28 19:20:43.170938
113,98,2024-02-28 19:20:43.170938
111,99,2024-02-28 19:20:43.171961
109,100,2024-02-28 19:20:43.172975
107,102,2024-02-28 19:20:43.174039
106,103,2024-02-28 19:20:43.174039
108,110,2024-02-28 19:20:43.175051
113,109,2024-02-28 19:20:43.176414
110,71,2024-02-28 19:20:43.176414
71,48,2024-02-28 19:20:43.177430
97,2024-02-28 19:20:43.178442
110,121,2024-02-28 19:20:43.179474
104,121,2024-02-28 19:20:43.180489
107,118,2024-02-28 19:20:43.180489
127,135,2024-02-28 19:20:43.181505
140,149,2024-02-28 19:20:43.182556
139,149,2024-02-28 19:20:43.183790
138,144,2024-02-28 19:20:43.183790
139,133,2024-02-28 19:20:43.184807
135,123,2024-02-28 19:20:43.185819
133,118,2024-02-28 19:20:43.186987
129,113,2024-02-28 19:20:43.187985
127,106,2024-02-28 19:20:43.188986
121,102,2024-02-28 19:20:43.188986
117,98,2024-02-28 19:20:43.189986
115,96,2024-02-28 19:20:43.190986
116,94,2024-02-28 19:20:43.191988
116,95,2024-02-28 19:20:43.193043
119,96,2024-02-28 19:20:43.193043
115,98,2024-02-28 19:20:43.194118
111,103,2024-02-28 19:20:43.195143
107,109,2024-02-28 19:20:43.196143
97,109,2024-02-28 19:20:43.196143
97,108,2024-02-28 19:20:43.197143
96,109,2024-02-28 19:20:43.198144
95,107,2024-02-28 19:20:43.199179
96,111,2024-02-28 19:20:43.200196
93,111,2024-02-28 19:20:43.201210
54,73,2024-02-28 19:20:43.201210
37,52,2024-02-28 19:20:43.202235
83,99,2024-02-28 19:20:43.203249
96,124,2024-02-28 19:20:43.204324
141,2024-02-28 19:20:43.204324
94,128,2024-02-28 19:20:43.205339
92,117,2024-02-28 19:20:43.206353
110,128,2024-02-28 19:20:43.207449
129,145,2024-02-28 19:20:43.208451
134,144,2024-02-28 19:20:43.208965
133,136,2024-02-28 19:20:43.209979
132,133,2024-02-28 19:20:43.210993
134,129,2024-02-28 19:20:43.210993
134,123,2024-02-28 19:20:43.212020
134,112,2024-02-28 19:20:43.213034
131,106,2024-02-28 19:20:43.214110
137,105,2024-02-28 19:20:43.214110
137,104,2024-02-28 19:20:43.215444
133,104,2024-02-28 19:20:43.216489
130,103,2024-02-28 19:20:43.216489
127,106,2024-02-28 19:20:43.217505
121,105,2024-02-28 19:20:43.218517
116,107,2024-02-28 19:20:43.219551
112,109,2024-02-28 19:20:43.219551
104,109,2024-02-28 19:20:43.220567
100,111,2024-02-28 19:20:43.221582
98,110,2024-02-28 19:20:43.222634
91,107,2024-02-28 19:20:43.222634
94,107,2024-02-28 19:20:43.223690
97,106,2024-02-28 19:20:43.224702
60,68,2024-02-28 19:20:43.226021
46,55,2024-02-28 19:20:43.227151
55,67,2024-02-28 19:20:43.227151
89,109,2024-02-28 19:20:43.228217
116,139,2024-02-28 19:20:43.229242
123,149,2024-02-28 19:20:43.230730
145,2024-02-28 19:20:43.230730
107,121,2024-02-28 19:20:43.231756
102,114,2024-02-28 19:20:43.232770
115,127,2024-02-28 19:20:43.233824
126,144,2024-02-28 19:20:43.233824
122,139,2024-02-28 19:20:43.234841
119,132,2024-02-28 19:20:43.235856
122,125,2024-02-28 19:20:43.235856
120,118,2024-02-28 19:20:43.236872
119,114,2024-02-28 19:20:43.237890
119,112,2024-02-28 19:20:43.238933
119,109,2024-02-28 19:20:43.238933
118,107,2024-02-28 19:20:43.239949
120,102,2024-02-28 19:20:43.240961
123,98,2024-02-28 19:20:43.241998
125,95,2024-02-28 19:20:43.243012
123,93,2024-02-28 19:20:43.244028
123,96,2024-02-28 19:20:43.244028
122,98,2024-02-28 19:20:43.245045
114,102,2024-02-28 19:20:43.246397
111,106,2024-02-28 19:20:43.246397
108,106,2024-02-28 19:20:43.247808
110,110,2024-02-28 19:20:43.248818
110,110,2024-02-28 19:20:43.248818
74,75,2024-02-28 19:20:43.249842
50,45,2024-02-28 19:20:43.250851
90,88,2024-02-28 19:20:43.251885
110,117,2024-02-28 19:20:43.251885
119,138,2024-02-28 19:20:43.252885
124,148,2024-02-28 19:20:43.253886
118,148,2024-02-28 19:20:43.254886
117,147,2024-02-28 19:20:43.255886
140,2024-02-28 19:20:43.255886
98,115,2024-02-28 19:20:43.256887
87,100,2024-02-28 19:20:43.257887
99,108,2024-02-28 19:20:43.258887
120,122,2024-02-28 19:20:43.259887
122,123,2024-02-28 19:20:43.261185
122,119,2024-02-28 19:20:43.262217
125,113,2024-02-28 19:20:43.262217
125,107,2024-02-28 19:20:43.263235
123,104,2024-02-28 19:20:43.264280
121,102,2024-02-28 19:20:43.264280
119,105,2024-02-28 19:20:43.265297
118,108,2024-02-28 19:20:43.266308
111,105,2024-02-28 19:20:43.267339
111,105,2024-02-28 19:20:43.267339
110,110,2024-02-28 19:20:43.268359
111,113,2024-02-28 19:20:43.269372
114,115,2024-02-28 19:20:43.270405
114,113,2024-02-28 19:20:43.270405
111,110,2024-02-28 19:20:43.271422
107,108,2024-02-28 19:20:43.272443
103,103,2024-02-28 19:20:43.273474
65,66,2024-02-28 19:20:43.273474
43,43,2024-02-28 19:20:43.274494
88,83,2024-02-28 19:20:43.275512
104,114,2024-02-28 19:20:43.276958
116,140,2024-02-28 19:20:43.276958
125,149,2024-02-28 19:20:43.277979
127,149,2024-02-28 19:20:43.278993
129,147,2024-02-28 19:20:43.280007
130,142,2024-02-28 19:20:43.280007
127,137,2024-02-28 19:20:43.281023
127,2024-02-28 19:20:43.282058
106,100,2024-02-28 19:20:43.283073
100,83,2024-02-28 19:20:43.283073
113,86,2024-02-28 19:20:43.284130
127,106,2024-02-28 19:20:43.285144
126,110,2024-02-28 19:20:43.286218
122,111,2024-02-28 19:20:43.287222
121,112,2024-02-28 19:20:43.288235
116,111,2024-02-28 19:20:43.289486
113,110,2024-02-28 19:20:43.289486
107,111,2024-02-28 19:20:43.290497
105,108,2024-02-28 19:20:43.291497
105,109,2024-02-28 19:20:43.292693
105,110,2024-02-28 19:20:43.293712
102,111,2024-02-28 19:20:43.294726
106,115,2024-02-28 19:20:43.295741
110,111,2024-02-28 19:20:43.295741
106,108,2024-02-28 19:20:43.296757
109,108,2024-02-28 19:20:43.297773
111,107,2024-02-28 19:20:43.298789
75,69,2024-02-28 19:20:43.298789
52,51,2024-02-28 19:20:43.299807
97,96,2024-02-28 19:20:43.300822
110,122,2024-02-28 19:20:43.300822
117,140,2024-02-28 19:20:43.301845
120,148,2024-02-28 19:20:43.302867
120,145,2024-02-28 19:20:43.303908
120,140,2024-02-28 19:20:43.303908
119,134,2024-02-28 19:20:43.304928
122,126,2024-02-28 19:20:43.305941
122,119,2024-02-28 19:20:43.307096
122,111,2024-02-28 19:20:43.308609
112,2024-02-28 19:20:43.400841
104,90,2024-02-28 19:20:43.400841
97,80,2024-02-28 19:20:43.402843
106,94,2024-02-28 19:20:43.402843
123,112,2024-02-28 19:20:43.403843
125,118,2024-02-28 19:20:43.404843
121,120,2024-02-28 19:20:43.405849
117,121,2024-02-28 19:20:43.406845
117,120,2024-02-28 19:20:43.408845
112,117,2024-02-28 19:20:43.409353
108,114,2024-02-28 19:20:43.410359
108,111,2024-02-28 19:20:43.411360
107,107,2024-02-28 19:20:43.412362
106,106,2024-02-28 19:20:43.413359
105,104,2024-02-28 19:20:43.414360
100,103,2024-02-28 19:20:43.415361
99,107,2024-02-28 19:20:43.416360
100,107,2024-02-28 19:20:43.416360
70,75,2024-02-28 19:20:43.417361
56,61,2024-02-28 19:20:43.418367
67,68,2024-02-28 19:20:43.419363
55,57,2024-02-28 19:20:43.420368
96,103,2024-02-28 19:20:43.420368
117,134,2024-02-28 19:20:43.421365
129,154,2024-02-28 19:20:43.422362
132,157,2024-02-28 19:20:43.423365
134,162,2024-02-28 19:20:43.423365
140,158,2024-02-28 19:20:43.424365
144,153,2024-02-28 19:20:43.425364
144,141,2024-02-28 19:20:43.426366
141,128,2024-02-28 19:20:43.427366
137,117,2024-02-28 19:20:43.429367
112,2024-02-28 19:20:43.430365
110,88,2024-02-28 19:20:43.430365
98,71,2024-02-28 19:20:43.431365
111,84,2024-02-28 19:20:43.432365
125,105,2024-02-28 19:20:43.433365
123,111,2024-02-28 19:20:43.434367
119,115,2024-02-28 19:20:43.435370
117,115,2024-02-28 19:20:43.436383
117,113,2024-02-28 19:20:43.437439
114,113,2024-02-28 19:20:43.437439
108,113,2024-02-28 19:20:43.438456
102,116,2024-02-28 19:20:43.439474
100,112,2024-02-28 19:20:43.440487
101,107,2024-02-28 19:20:43.441486
105,111,2024-02-28 19:20:43.442619
102,111,2024-02-28 19:20:43.443659
64,69,2024-02-28 19:20:43.443659
40,43,2024-02-28 19:20:43.444688
86,83,2024-02-28 19:20:43.445721
104,105,2024-02-28 19:20:43.446756
116,131,2024-02-28 19:20:43.448040
118,148,2024-02-28 19:20:43.448040
121,149,2024-02-28 19:20:43.450041
124,146,2024-02-28 19:20:43.451145
123,137,2024-02-28 19:20:43.451145
119,125,2024-02-28 19:20:43.452172
119,117,2024-02-28 19:20:43.453190
119,111,2024-02-28 19:20:43.454207
122,105,2024-02-28 19:20:43.454207
122,105,2024-02-28 19:20:43.455224
122,109,2024-02-28 19:20:43.456241
123,112,2024-02-28 19:20:43.457259
110,2024-02-28 19:20:43.458275
97,89,2024-02-28 19:20:43.459289
86,79,2024-02-28 19:20:43.460430
98,93,2024-02-28 19:20:43.460430
114,114,2024-02-28 19:20:43.461446
111,123,2024-02-28 19:20:43.462469
109,124,2024-02-28 19:20:43.463609
106,122,2024-02-28 19:20:43.463609
110,120,2024-02-28 19:20:43.464671
114,117,2024-02-28 19:20:43.465775
116,115,2024-02-28 19:20:43.467099
113,111,2024-02-28 19:20:43.468097
110,111,2024-02-28 19:20:43.469098
107,110,2024-02-28 19:20:43.469098
70,70,2024-02-28 19:20:43.470098
54,48,2024-02-28 19:20:43.471099
103,92,2024-02-28 19:20:43.472098
117,113,2024-02-28 19:20:43.472098
128,133,2024-02-28 19:20:43.473098
134,138,2024-02-28 19:20:43.474098
137,141,2024-02-28 19:20:43.475416
137,138,2024-02-28 19:20:43.476486
135,132,2024-02-28 19:20:43.476486
129,127,2024-02-28 19:20:43.477504
127,122,2024-02-28 19:20:43.478522
127,118,2024-02-28 19:20:43.479539
122,116,2024-02-28 19:20:43.480539
116,113,2024-02-28 19:20:43.480539
113,110,2024-02-28 19:20:43.481560
110,108,2024-02-28 19:20:43.482593
110,105,2024-02-28 19:20:43.484629
104,104,2024-02-28 19:20:43.485704
103,2024-02-28 19:20:43.486746
78,81,2024-02-28 19:20:43.487747
67,73,2024-02-28 19:20:43.488748
79,89,2024-02-28 19:20:43.489913
96,110,2024-02-28 19:20:43.490929
98,118,2024-02-28 19:20:43.492105
99,118,2024-02-28 19:20:43.493130
102,116,2024-02-28 19:20:43.494196
105,118,2024-02-28 19:20:43.495416
106,120,2024-02-28 19:20:43.496445
114,121,2024-02-28 19:20:43.497501
116,117,2024-02-28 19:20:43.498523
80,76,2024-02-28 19:20:43.498523
69,63,2024-02-28 19:20:43.499540
77,69,2024-02-28 19:20:43.500556
111,107,2024-02-28 19:20:43.501569
124,127,2024-02-28 19:20:43.502846
124,136,2024-02-28 19:20:43.503956
126,138,2024-02-28 19:20:43.506054
132,142,2024-02-28 19:20:43.507274
142,150,2024-02-28 19:20:43.508795
144,144,2024-02-28 19:20:43.510134
144,131,2024-02-28 19:20:43.511173
142,124,2024-02-28 19:20:43.512660
137,120,2024-02-28 19:20:43.513761
133,117,2024-02-28 19:20:43.513761
127,112,2024-02-28 19:20:43.514778
126,106,2024-02-28 19:20:43.515790
125,103,2024-02-28 19:20:43.516844
123,101,2024-02-28 19:20:43.516844
118,98,2024-02-28 19:20:43.517860
112,102,2024-02-28 19:20:43.518873
102,2024-02-28 19:20:43.519894
82,83,2024-02-28 19:20:43.519894
78,76,2024-02-28 19:20:43.520910
93,91,2024-02-28 19:20:43.521935
114,114,2024-02-28 19:20:43.521935
111,120,2024-02-28 19:20:43.522951
106,118,2024-02-28 19:20:43.524008
106,117,2024-02-28 19:20:43.525270
106,116,2024-02-28 19:20:43.526295
104,120,2024-02-28 19:20:43.527310
103,122,2024-02-28 19:20:43.527310
106,123,2024-02-28 19:20:43.528591
108,120,2024-02-28 19:20:43.529604
107,120,2024-02-28 19:20:43.529604
107,117,2024-02-28 19:20:43.530616
109,111,2024-02-28 19:20:43.531634
107,106,2024-02-28 19:20:43.531634
104,105,2024-02-28 19:20:43.532647
105,108,2024-02-28 19:20:43.533658
99,105,2024-02-28 19:20:43.533658
60,63,2024-02-28 19:20:43.534669
38,41,2024-02-28 19:20:43.535681
88,87,2024-02-28 19:20:43.535681
110,113,2024-02-28 19:20:43.536693
121,136,2024-02-28 19:20:43.537704
124,143,2024-02-28 19:20:43.537704
124,141,2024-02-28 19:20:43.538717
125,136,2024-02-28 19:20:43.539726
123,133,2024-02-28 19:20:43.540845
122,129,2024-02-28 19:20:43.540845
123,125,2024-02-28 19:20:43.541912
124,119,2024-02-28 19:20:43.542925
112,2024-02-28 19:20:43.542925
104,86,2024-02-28 19:20:43.544323
96,76,2024-02-28 19:20:43.545335
108,93,2024-02-28 19:20:43.545335
125,118,2024-02-28 19:20:43.546352
128,122,2024-02-28 19:20:43.547369
128,122,2024-02-28 19:20:43.548378
127,121,2024-02-28 19:20:43.548378
129,120,2024-02-28 19:20:43.549608
125,120,2024-02-28 19:20:43.549608
121,119,2024-02-28 19:20:43.550902
120,116,2024-02-28 19:20:43.550902
117,112,2024-02-28 19:20:43.552179
114,110,2024-02-28 19:20:43.553189
113,106,2024-02-28 19:20:43.553189
111,107,2024-02-28 19:20:43.554267
107,110,2024-02-28 19:20:43.555278
106,111,2024-02-28 19:20:43.555278
104,109,2024-02-28 19:20:43.556288
102,105,2024-02-28 19:20:43.556288
101,103,2024-02-28 19:20:43.557514
100,106,2024-02-28 19:20:43.558648
98,107,2024-02-28 19:20:43.559930
98,111,2024-02-28 19:20:43.559930
99,111,2024-02-28 19:20:43.560940
95,109,2024-02-28 19:20:43.560940
98,109,2024-02-28 19:20:43.562157
99,111,2024-02-28 19:20:43.562157
64,74,2024-02-28 19:20:43.563452
47,54,2024-02-28 19:20:43.563452
95,97,2024-02-28 19:20:43.564752
113,118,2024-02-28 19:20:43.564752
136,2024-02-28 19:20:43.566053
108,124,2024-02-28 19:20:43.567087
106,116,2024-02-28 19:20:43.567087
121,129,2024-02-28 19:20:43.568460
138,146,2024-02-28 19:20:43.569473
137,144,2024-02-28 19:20:43.569473
136,137,2024-02-28 19:20:43.570483
138,131,2024-02-28 19:20:43.571761
138,128,2024-02-28 19:20:43.571761
133,121,2024-02-28 19:20:43.572761
131,112,2024-02-28 19:20:43.573760
124,104,2024-02-28 19:20:43.574763
120,103,2024-02-28 19:20:43.575762
115,100,2024-02-28 19:20:43.576762
114,99,2024-02-28 19:20:43.577762
108,102,2024-02-28 19:20:43.577762
104,102,2024-02-28 19:20:43.578762
104,101,2024-02-28 19:20:43.579765
105,99,2024-02-28 19:20:43.580762
104,103,2024-02-28 19:20:43.580762
103,110,2024-02-28 19:20:43.581763
105,111,2024-02-28 19:20:43.582763
104,112,2024-02-28 19:20:43.583764
107,110,2024-02-28 19:20:43.583764
106,112,2024-02-28 19:20:43.584763
110,116,2024-02-28 19:20:43.585764
108,118,2024-02-28 19:20:43.586767
107,119,2024-02-28 19:20:43.587764
105,120,2024-02-28 19:20:43.587764
104,115,2024-02-28 19:20:43.588764
103,109,2024-02-28 19:20:43.589765
104,107,2024-02-28 19:20:43.590765
103,2024-02-28 19:20:43.591766
84,87,2024-02-28 19:20:43.592767
78,83,2024-02-28 19:20:43.593785
93,92,2024-02-28 19:20:43.593785
73,72,2024-02-28 19:20:43.594792
53,53,2024-02-28 19:20:43.595793
76,73,2024-02-28 19:20:43.595793
73,77,2024-02-28 19:20:43.596793
118,125,2024-02-28 19:20:43.597794
135,150,2024-02-28 19:20:43.597794
130,155,2024-02-28 19:20:43.598794
138,158,2024-02-28 19:20:43.599795
153,166,2024-02-28 19:20:43.599795
153,162,2024-02-28 19:20:43.600794
151,152,2024-02-28 19:20:43.601795
148,143,2024-02-28 19:20:43.601795
144,136,2024-02-28 19:20:43.602807
137,124,2024-02-28 19:20:43.603819
133,111,2024-02-28 19:20:43.603819
129,102,2024-02-28 19:20:43.604831
123,96,2024-02-28 19:20:43.605843
119,95,2024-02-28 19:20:43.606863
117,97,2024-02-28 19:20:43.608348
115,101,2024-02-28 19:20:43.608862
111,102,2024-02-28 19:20:43.608862
106,101,2024-02-28 19:20:43.609896
103,99,2024-02-28 19:20:43.610908
104,98,2024-02-28 19:20:43.610908
102,98,2024-02-28 19:20:43.611963
98,99,2024-02-28 19:20:43.612975
95,104,2024-02-28 19:20:43.612975
91,107,2024-02-28 19:20:43.614055
104,2024-02-28 19:20:43.615066
71,88,2024-02-28 19:20:43.616199
64,81,2024-02-28 19:20:43.616199
80,99,2024-02-28 19:20:43.617209
101,126,2024-02-28 19:20:43.617209
104,132,2024-02-28 19:20:43.618287
103,132,2024-02-28 19:20:43.619300
109,131,2024-02-28 19:20:43.619300
114,125,2024-02-28 19:20:43.620312
119,118,2024-02-28 19:20:43.621322
123,118,2024-02-28 19:20:43.622412
122,113,2024-02-28 19:20:43.622412
87,69,2024-02-28 19:20:43.623586
67,45,2024-02-28 19:20:43.624803
109,90,2024-02-28 19:20:43.625817
123,112,2024-02-28 19:20:43.626962
134,132,2024-02-28 19:20:43.627976
138,140,2024-02-28 19:20:43.629127
136,142,2024-02-28 19:20:43.630145
136,141,2024-02-28 19:20:43.630145
135,137,2024-02-28 19:20:43.631163
133,132,2024-02-28 19:20:43.632194
129,123,2024-02-28 19:20:43.633229
123,114,2024-02-28 19:20:43.634258
120,108,2024-02-28 19:20:43.635276
117,102,2024-02-28 19:20:43.635276
115,99,2024-02-28 19:20:43.636294
114,101,2024-02-28 19:20:43.637310
114,103,2024-02-28 19:20:43.638326
112,103,2024-02-28 19:20:43.638326
111,106,2024-02-28 19:20:43.639697
107,105,2024-02-28 19:20:43.640722
107,2024-02-28 19:20:43.641861
84,87,2024-02-28 19:20:43.642878
74,80,2024-02-28 19:20:43.642878
86,94,2024-02-28 19:20:43.643942
106,118,2024-02-28 19:20:43.644958
106,128,2024-02-28 19:20:43.645971
105,133,2024-02-28 19:20:43.647128
104,134,2024-02-28 19:20:43.648250
101,132,2024-02-28 19:20:43.648250
100,125,2024-02-28 19:20:43.649283
101,120,2024-02-28 19:20:43.650315
105,117,2024-02-28 19:20:43.650315
109,112,2024-02-28 19:20:43.651373
111,110,2024-02-28 19:20:43.652395
114,107,2024-02-28 19:20:43.653472
120,105,2024-02-28 19:20:43.653472
123,101,2024-02-28 19:20:43.654766
120,98,2024-02-28 19:20:43.654766
122,102,2024-02-28 19:20:43.655862
120,105,2024-02-28 19:20:43.656874
84,69,2024-02-28 19:20:43.658066
59,43,2024-02-28 19:20:43.658066
102,91,2024-02-28 19:20:43.659129
117,119,2024-02-28 19:20:43.660160
128,137,2024-02-28 19:20:43.660160
132,145,2024-02-28 19:20:43.661175
130,144,2024-02-28 19:20:43.662194
126,142,2024-02-28 19:20:43.662194
123,138,2024-02-28 19:20:43.663210
123,134,2024-02-28 19:20:43.664222
121,128,2024-02-28 19:20:43.664222
120,123,2024-02-28 19:20:43.665234
118,2024-02-28 19:20:43.666245
98,95,2024-02-28 19:20:43.667559
89,79,2024-02-28 19:20:43.667559
99,90,2024-02-28 19:20:43.668599
114,109,2024-02-28 19:20:43.669808
111,113,2024-02-28 19:20:43.671131
106,113,2024-02-28 19:20:43.671131
104,114,2024-02-28 19:20:43.672209
98,113,2024-02-28 19:20:43.673223
98,113,2024-02-28 19:20:43.674310
103,113,2024-02-28 19:20:43.675650
103,109,2024-02-28 19:20:43.676663
103,107,2024-02-28 19:20:43.677420
107,106,2024-02-28 19:20:43.678485
110,105,2024-02-28 19:20:43.679437
110,108,2024-02-28 19:20:43.679946
108,108,2024-02-28 19:20:43.680453
109,109,2024-02-28 19:20:43.681460
108,113,2024-02-28 19:20:43.682475
109,117,2024-02-28 19:20:43.682475
110,120,2024-02-28 19:20:43.683991
111,119,2024-02-28 19:20:43.684498
114,118,2024-02-28 19:20:43.686014
117,115,2024-02-28 19:20:43.687079
119,110,2024-02-28 19:20:43.688072
118,102,2024-02-28 19:20:43.689099
118,101,2024-02-28 19:20:43.689099
118,101,2024-02-28 19:20:43.690119
84,66,2024-02-28 19:20:43.691405
71,55,2024-02-28 19:20:43.691405
76,61,2024-02-28 19:20:43.692458
110,105,2024-02-28 19:20:43.693459
138,2024-02-28 19:20:43.694466
116,135,2024-02-28 19:20:43.695466
108,122,2024-02-28 19:20:43.695466
122,132,2024-02-28 19:20:43.696466
136,150,2024-02-28 19:20:43.697466
135,148,2024-02-28 19:20:43.698469
132,141,2024-02-28 19:20:43.698469
123,133,2024-02-28 19:20:43.700469
118,126,2024-02-28 19:20:43.700469
116,120,2024-02-28 19:20:43.701468
113,111,2024-02-28 19:20:43.702469
114,108,2024-02-28 19:20:43.703468
110,109,2024-02-28 19:20:43.704468
104,109,2024-02-28 19:20:43.704468
103,105,2024-02-28 19:20:43.705469
103,102,2024-02-28 19:20:43.707470
106,101,2024-02-28 19:20:43.707470
107,102,2024-02-28 19:20:43.708980
104,106,2024-02-28 19:20:43.709988
102,107,2024-02-28 19:20:43.709988
104,108,2024-02-28 19:20:43.710988
106,110,2024-02-28 19:20:43.711988
105,113,2024-02-28 19:20:43.712988
107,114,2024-02-28 19:20:43.712988
111,113,2024-02-28 19:20:43.715990
111,112,2024-02-28 19:20:43.716992
113,114,2024-02-28 19:20:43.717991
115,112,2024-02-28 19:20:43.718993
112,111,2024-02-28 19:20:43.719993
106,109,2024-02-28 19:20:43.720990
104,109,2024-02-28 19:20:43.721990
102,108,2024-02-28 19:20:43.722991
107,2024-02-28 19:20:43.723997
90,86,2024-02-28 19:20:43.725994
87,82,2024-02-28 19:20:43.726995
102,93,2024-02-28 19:20:43.727993
86,77,2024-02-28 19:20:43.728993
66,57,2024-02-28 19:20:43.729992
87,78,2024-02-28 19:20:43.730992
81,77,2024-02-28 19:20:43.731995
122,125,2024-02-28 19:20:43.731995
143,149,2024-02-28 19:20:43.732993
142,153,2024-02-28 19:20:43.733993
146,159,2024-02-28 19:20:43.734994
158,166,2024-02-28 19:20:43.735993
154,160,2024-02-28 19:20:43.735993
148,149,2024-02-28 19:20:43.736994
140,137,2024-02-28 19:20:43.737995
136,123,2024-02-28 19:20:43.738993
133,114,2024-02-28 19:20:43.739993
130,109,2024-02-28 19:20:43.740996
124,101,2024-02-28 19:20:43.741994
116,98,2024-02-28 19:20:43.741994
107,96,2024-02-28 19:20:43.742995
104,97,2024-02-28 19:20:43.743996
99,97,2024-02-28 19:20:43.744995
95,100,2024-02-28 19:20:43.744995
91,102,2024-02-28 19:20:43.746372
92,109,2024-02-28 19:20:43.747641
97,111,2024-02-28 19:20:43.748640
96,112,2024-02-28 19:20:43.749640
91,115,2024-02-28 19:20:43.750640
87,114,2024-02-28 19:20:43.750640
88,115,2024-02-28 19:20:43.751641
110,2024-02-28 19:20:43.752643
75,87,2024-02-28 19:20:43.753641
72,78,2024-02-28 19:20:43.753641
87,95,2024-02-28 19:20:43.754641
103,119,2024-02-28 19:20:43.755642
106,122,2024-02-28 19:20:43.756641
113,122,2024-02-28 19:20:43.757642
114,124,2024-02-28 19:20:43.758642
117,122,2024-02-28 19:20:43.758642
120,116,2024-02-28 19:20:43.759643
123,119,2024-02-28 19:20:43.760643
123,115,2024-02-28 19:20:43.761643
93,79,2024-02-28 19:20:43.762913
78,59,2024-02-28 19:20:43.763972
109,96,2024-02-28 19:20:43.763972
135,127,2024-02-28 19:20:43.764988
140,132,2024-02-28 19:20:43.766003
138,132,2024-02-28 19:20:43.767189
131,132,2024-02-28 19:20:43.768261
129,133,2024-02-28 19:20:43.768261
125,129,2024-02-28 19:20:43.769277
124,122,2024-02-28 19:20:43.770291
119,114,2024-02-28 19:20:43.771330
116,110,2024-02-28 19:20:43.771330
114,105,2024-02-28 19:20:43.772354
114,101,2024-02-28 19:20:43.773368
112,98,2024-02-28 19:20:43.774525
112,101,2024-02-28 19:20:43.774525
115,99,2024-02-28 19:20:43.775541
112,101,2024-02-28 19:20:43.776553
112,105,2024-02-28 19:20:43.777572
111,105,2024-02-28 19:20:43.778879
107,2024-02-28 19:20:43.778879
92,90,2024-02-28 19:20:43.779895
89,86,2024-02-28 19:20:43.780908
104,104,2024-02-28 19:20:43.781994
122,124,2024-02-28 19:20:43.781994
118,125,2024-02-28 19:20:43.783010
114,122,2024-02-28 19:20:43.784025
113,126,2024-02-28 19:20:43.785039
115,128,2024-02-28 19:20:43.785039
111,125,2024-02-28 19:20:43.786055
110,124,2024-02-28 19:20:43.787071
105,121,2024-02-28 19:20:43.787071
104,123,2024-02-28 19:20:43.788085
105,118,2024-02-28 19:20:43.789097
101,111,2024-02-28 19:20:43.790127
97,108,2024-02-28 19:20:43.790127
93,105,2024-02-28 19:20:43.791344
89,103,2024-02-28 19:20:43.792373
90,105,2024-02-28 19:20:43.793389
91,103,2024-02-28 19:20:43.793389
67,74,2024-02-28 19:20:43.794749
59,56,2024-02-28 19:20:43.795771
76,70,2024-02-28 19:20:43.796917
66,62,2024-02-28 19:20:43.796917
92,85,2024-02-28 19:20:43.797936
89,85,2024-02-28 19:20:43.798949
131,136,2024-02-28 19:20:43.800041
151,160,2024-02-28 19:20:43.800041
149,157,2024-02-28 19:20:43.801058
151,160,2024-02-28 19:20:43.802081
159,168,2024-02-28 19:20:43.803152
158,160,2024-02-28 19:20:43.803152
146,2024-02-28 19:20:43.804168
129,117,2024-02-28 19:20:43.805186
117,99,2024-02-28 19:20:43.806202
127,102,2024-02-28 19:20:43.807302
142,116,2024-02-28 19:20:43.808846
139,118,2024-02-28 19:20:43.808846
128,117,2024-02-28 19:20:43.810143
121,116,2024-02-28 19:20:43.811157
116,114,2024-02-28 19:20:43.811157
110,107,2024-02-28 19:20:43.812176
107,104,2024-02-28 19:20:43.813215
101,107,2024-02-28 19:20:43.813215
97,106,2024-02-28 19:20:43.814228
99,104,2024-02-28 19:20:43.815237
96,100,2024-02-28 19:20:43.815237
88,97,2024-02-28 19:20:43.816259
88,97,2024-02-28 19:20:43.817268
84,97,2024-02-28 19:20:43.817268
84,99,2024-02-28 19:20:43.818359
85,103,2024-02-28 19:20:43.819368
87,105,2024-02-28 19:20:43.819368
87,109,2024-02-28 19:20:43.820466
91,109,2024-02-28 19:20:43.821475
93,111,2024-02-28 19:20:43.821475
96,112,2024-02-28 19:20:43.822503
99,112,2024-02-28 19:20:43.823514
106,113,2024-02-28 19:20:43.824610
105,109,2024-02-28 19:20:43.825608
71,66,2024-02-28 19:20:43.826772
55,44,2024-02-28 19:20:43.827794
105,93,2024-02-28 19:20:43.827794
127,122,2024-02-28 19:20:43.828810
141,2024-02-28 19:20:43.829824
136,127,2024-02-28 19:20:43.830858
128,119,2024-02-28 19:20:43.830858
137,129,2024-02-28 19:20:43.831882
151,142,2024-02-28 19:20:43.832897
151,141,2024-02-28 19:20:43.833907
151,135,2024-02-28 19:20:43.834919
151,127,2024-02-28 19:20:43.835931
148,123,2024-02-28 19:20:43.835931
146,122,2024-02-28 19:20:43.836942
146,119,2024-02-28 19:20:43.837952
137,117,2024-02-28 19:20:43.838999
130,113,2024-02-28 19:20:43.840067
125,106,2024-02-28 19:20:43.841568
123,102,2024-02-28 19:20:43.842701
120,102,2024-02-28 19:20:43.843719
107,107,2024-02-28 19:20:43.844733
98,104,2024-02-28 19:20:43.844733
93,104,2024-02-28 19:20:43.846066
87,106,2024-02-28 19:20:43.847234
86,107,2024-02-28 19:20:43.848257
86,110,2024-02-28 19:20:43.849272
85,109,2024-02-28 19:20:43.850685
88,108,2024-02-28 19:20:43.851750
89,109,2024-02-28 19:20:43.852766
90,110,2024-02-28 19:20:43.853817
90,109,2024-02-28 19:20:43.853817
94,108,2024-02-28 19:20:43.854830
94,108,2024-02-28 19:20:43.855848
95,107,2024-02-28 19:20:43.856847
97,106,2024-02-28 19:20:43.858000
96,108,2024-02-28 19:20:43.859032
111,2024-02-28 19:20:43.860172
71,88,2024-02-28 19:20:43.861203
72,78,2024-02-28 19:20:43.862303
89,95,2024-02-28 19:20:43.863320
75,82,2024-02-28 19:20:43.863320
58,63,2024-02-28 19:20:43.864343
80,85,2024-02-28 19:20:43.865356
88,101,2024-02-28 19:20:43.866771
99,107,2024-02-28 19:20:43.867790
140,144,2024-02-28 19:20:43.868808
153,157,2024-02-28 19:20:43.869822
155,157,2024-02-28 19:20:43.869822
167,162,2024-02-28 19:20:43.870942
168,156,2024-02-28 19:20:43.871998
162,149,2024-02-28 19:20:43.873317
157,140,2024-02-28 19:20:43.873317
154,130,2024-02-28 19:20:43.874474
145,120,2024-02-28 19:20:43.875502
137,109,2024-02-28 19:20:43.875502
131,103,2024-02-28 19:20:43.876531
124,102,2024-02-28 19:20:43.877563
116,102,2024-02-28 19:20:43.877563
110,96,2024-02-28 19:20:43.878582
104,93,2024-02-28 19:20:43.879615
104,97,2024-02-28 19:20:43.879615
104,101,2024-02-28 19:20:43.880629
100,101,2024-02-28 19:20:43.881663
103,100,2024-02-28 19:20:43.881663
104,100,2024-02-28 19:20:43.882691
100,102,2024-02-28 19:20:43.883758
97,108,2024-02-28 19:20:43.883758
95,114,2024-02-28 19:20:43.884794
116,2024-02-28 19:20:43.885809
75,98,2024-02-28 19:20:43.886822
67,90,2024-02-28 19:20:43.888101
81,103,2024-02-28 19:20:43.889404
101,121,2024-02-28 19:20:43.890435
103,124,2024-02-28 19:20:43.890435
102,124,2024-02-28 19:20:43.891467
104,124,2024-02-28 19:20:43.892489
105,124,2024-02-28 19:20:43.892489
104,120,2024-02-28 19:20:43.893501
108,118,2024-02-28 19:20:43.894514
109,113,2024-02-28 19:20:43.894514
76,72,2024-02-28 19:20:43.895528
55,43,2024-02-28 19:20:43.896539
100,86,2024-02-28 19:20:43.896539
116,116,2024-02-28 19:20:43.897551
128,138,2024-02-28 19:20:43.898562
135,148,2024-02-28 19:20:43.898562
141,145,2024-02-28 19:20:43.899574
141,140,2024-02-28 19:20:43.900585
144,137,2024-02-28 19:20:43.900585
143,131,2024-02-28 19:20:43.901596
141,123,2024-02-28 19:20:43.902615
136,119,2024-02-28 19:20:43.902615
136,110,2024-02-28 19:20:43.903627
132,104,2024-02-28 19:20:43.904876
129,103,2024-02-28 19:20:43.905875
122,105,2024-02-28 19:20:43.907010
115,100,2024-02-28 19:20:43.908134
113,100,2024-02-28 19:20:43.908134
111,101,2024-02-28 19:20:43.909133
106,102,2024-02-28 19:20:43.910258
105,2024-02-28 19:20:43.910258
81,85,2024-02-28 19:20:43.911390
73,78,2024-02-28 19:20:43.912411
84,92,2024-02-28 19:20:43.912411
98,113,2024-02-28 19:20:43.913526
100,121,2024-02-28 19:20:43.914597
101,122,2024-02-28 19:20:43.915632
101,125,2024-02-28 19:20:43.915632
100,125,2024-02-28 19:20:43.916662
98,124,2024-02-28 19:20:43.917696
100,123,2024-02-28 19:20:43.917696
101,122,2024-02-28 19:20:43.918725
101,116,2024-02-28 19:20:43.919759
104,110,2024-02-28 19:20:43.919759
108,110,2024-02-28 19:20:43.921107
111,110,2024-02-28 19:20:43.922133
116,109,2024-02-28 19:20:43.923148
116,107,2024-02-28 19:20:43.923148
121,109,2024-02-28 19:20:43.924387
118,108,2024-02-28 19:20:43.925399
79,70,2024-02-28 19:20:43.925399
60,44,2024-02-28 19:20:43.926441
103,87,2024-02-28 19:20:43.927457
117,110,2024-02-28 19:20:43.928457
130,134,2024-02-28 19:20:43.929456
134,148,2024-02-28 19:20:43.930456
133,148,2024-02-28 19:20:43.930456
134,143,2024-02-28 19:20:43.931456
133,135,2024-02-28 19:20:43.932458
129,125,2024-02-28 19:20:43.933456
126,120,2024-02-28 19:20:43.933456
128,113,2024-02-28 19:20:43.934457
106,2024-02-28 19:20:43.935458
109,83,2024-02-28 19:20:43.936459
98,77,2024-02-28 19:20:43.937458
109,94,2024-02-28 19:20:43.938458
121,118,2024-02-28 19:20:43.938458
116,122,2024-02-28 19:20:43.939457
113,121,2024-02-28 19:20:43.940532
109,122,2024-02-28 19:20:43.941547
108,121,2024-02-28 19:20:43.941547
106,121,2024-02-28 19:20:43.942702
106,121,2024-02-28 19:20:43.943755
104,115,2024-02-28 19:20:43.944876
102,108,2024-02-28 19:20:43.944876
98,105,2024-02-28 19:20:43.945890
98,103,2024-02-28 19:20:43.947240
98,105,2024-02-28 19:20:43.947240
98,104,2024-02-28 19:20:43.948271
98,107,2024-02-28 19:20:43.949304
98,109,2024-02-28 19:20:43.949304
96,113,2024-02-28 19:20:43.950334
99,113,2024-02-28 19:20:43.951367
102,114,2024-02-28 19:20:43.952652
101,113,2024-02-28 19:20:43.953685
104,112,2024-02-28 19:20:43.954719
108,108,2024-02-28 19:20:43.954719
107,108,2024-02-28 19:20:43.955741
113,110,2024-02-28 19:20:43.956776
114,107,2024-02-28 19:20:43.957789
79,71,2024-02-28 19:20:43.957789
58,46,2024-02-28 19:20:43.958799
101,87,2024-02-28 19:20:43.958799
116,114,2024-02-28 19:20:43.959942
136,2024-02-28 19:20:43.960952
111,124,2024-02-28 19:20:43.960952
104,116,2024-02-28 19:20:43.962003
121,127,2024-02-28 19:20:43.963013
139,146,2024-02-28 19:20:43.963013
139,146,2024-02-28 19:20:43.964088
138,140,2024-02-28 19:20:43.965098
137,133,2024-02-28 19:20:43.966216
135,125,2024-02-28 19:20:43.967232
130,116,2024-02-28 19:20:43.968578
129,108,2024-02-28 19:20:43.968578
124,107,2024-02-28 19:20:43.969611
116,108,2024-02-28 19:20:43.970626
113,105,2024-02-28 19:20:43.970626
111,99,2024-02-28 19:20:43.971675
113,101,2024-02-28 19:20:43.972684
113,103,2024-02-28 19:20:43.973830
111,108,2024-02-28 19:20:43.973830
109,111,2024-02-28 19:20:43.974840
106,109,2024-02-28 19:20:43.975863
107,109,2024-02-28 19:20:43.975863
107,111,2024-02-28 19:20:43.976891
106,111,2024-02-28 19:20:43.977924
100,112,2024-02-28 19:20:43.977924
97,114,2024-02-28 19:20:43.978947
95,111,2024-02-28 19:20:43.979980
98,109,2024-02-28 19:20:43.979980
101,110,2024-02-28 19:20:43.981010
102,112,2024-02-28 19:20:43.982048
104,109,2024-02-28 19:20:43.982048
106,109,2024-02-28 19:20:43.983077
105,107,2024-02-28 19:20:43.984143
107,2024-02-28 19:20:43.985159
79,86,2024-02-28 19:20:43.986175
78,83,2024-02-28 19:20:43.986175
93,99,2024-02-28 19:20:43.987209
75,82,2024-02-28 19:20:43.988221
55,61,2024-02-28 19:20:43.989253
75,79,2024-02-28 19:20:43.989253
73,80,2024-02-28 19:20:43.990458
115,128,2024-02-28 19:20:43.991471
135,152,2024-02-28 19:20:43.991471
137,154,2024-02-28 19:20:43.992520
144,159,2024-02-28 19:20:43.993529
152,163,2024-02-28 19:20:43.993529
156,151,2024-02-28 19:20:43.994554
155,139,2024-02-28 19:20:43.995563
154,130,2024-02-28 19:20:43.995563
149,123,2024-02-28 19:20:43.996594
147,112,2024-02-28 19:20:43.997605
143,105,2024-02-28 19:20:43.997605
136,102,2024-02-28 19:20:43.998616
129,104,2024-02-28 19:20:44.000059
125,113,2024-02-28 19:20:44.001084
122,115,2024-02-28 19:20:44.001084
115,115,2024-02-28 19:20:44.002120
106,108,2024-02-28 19:20:44.003136
100,105,2024-02-28 19:20:44.003136
96,100,2024-02-28 19:20:44.004185
92,100,2024-02-28 19:20:44.005195
92,99,2024-02-28 19:20:44.006250
93,103,2024-02-28 19:20:44.007270
93,106,2024-02-28 19:20:44.007270
95,108,2024-02-28 19:20:44.008282
108,2024-02-28 19:20:44.009280
75,90,2024-02-28 19:20:44.009280
68,81,2024-02-28 19:20:44.010474
85,98,2024-02-28 19:20:44.011484
107,121,2024-02-28 19:20:44.011484
114,126,2024-02-28 19:20:44.012524
110,124,2024-02-28 19:20:44.013534
111,124,2024-02-28 19:20:44.013534
113,124,2024-02-28 19:20:44.014578
111,116,2024-02-28 19:20:44.015679
116,116,2024-02-28 19:20:44.016790
115,116,2024-02-28 19:20:44.016790
76,74,2024-02-28 19:20:44.018111
51,43,2024-02-28 19:20:44.019124
100,87,2024-02-28 19:20:44.019124
119,112,2024-02-28 19:20:44.020441
134,130,2024-02-28 19:20:44.021454
139,140,2024-02-28 19:20:44.022604
137,138,2024-02-28 19:20:44.022604
137,134,2024-02-28 19:20:44.023703
136,128,2024-02-28 19:20:44.024717
130,124,2024-02-28 19:20:44.025781
128,117,2024-02-28 19:20:44.025781
127,113,2024-02-28 19:20:44.026795
125,113,2024-02-28 19:20:44.027794
114,112,2024-02-28 19:20:44.028795
107,107,2024-02-28 19:20:44.029794
106,108,2024-02-28 19:20:44.030797
105,111,2024-02-28 19:20:44.031796
101,110,2024-02-28 19:20:44.031796
101,108,2024-02-28 19:20:44.032795
98,106,2024-02-28 19:20:44.033796
108,2024-02-28 19:20:44.034796
86,87,2024-02-28 19:20:44.034796
82,80,2024-02-28 19:20:44.035796
97,91,2024-02-28 19:20:44.036797
111,113,2024-02-28 19:20:44.037796
110,122,2024-02-28 19:20:44.037796
108,128,2024-02-28 19:20:44.038798
109,129,2024-02-28 19:20:44.039961
110,126,2024-02-28 19:20:44.040976
111,121,2024-02-28 19:20:44.041995
110,117,2024-02-28 19:20:44.041995
111,115,2024-02-28 19:20:44.043060
110,114,2024-02-28 19:20:44.044081
114,114,2024-02-28 19:20:44.044081
113,115,2024-02-28 19:20:44.045111
112,113,2024-02-28 19:20:44.046113
113,110,2024-02-28 19:20:44.048150
109,109,2024-02-28 19:20:44.048150
112,111,2024-02-28 19:20:44.049148
110,109,2024-02-28 19:20:44.050149
77,69,2024-02-28 19:20:44.051149
69,55,2024-02-28 19:20:44.051149
65,53,2024-02-28 19:20:44.052150
102,97,2024-02-28 19:20:44.053150
127,132,2024-02-28 19:20:44.054151
136,147,2024-02-28 19:20:44.054151
133,146,2024-02-28 19:20:44.055150
128,144,2024-02-28 19:20:44.056151
127,139,2024-02-28 19:20:44.057150
130,134,2024-02-28 19:20:44.058150
128,129,2024-02-28 19:20:44.059151
128,121,2024-02-28 19:20:44.059151
114,2024-02-28 19:20:44.060151
106,90,2024-02-28 19:20:44.061151
98,80,2024-02-28 19:20:44.062152
108,92,2024-02-28 19:20:44.063153
123,110,2024-02-28 19:20:44.064152
120,112,2024-02-28 19:20:44.065152
119,110,2024-02-28 19:20:44.065152
117,112,2024-02-28 19:20:44.066154
118,112,2024-02-28 19:20:44.067154
118,108,2024-02-28 19:20:44.068152
114,110,2024-02-28 19:20:44.068152
112,114,2024-02-28 19:20:44.069153
107,115,2024-02-28 19:20:44.070155
103,116,2024-02-28 19:20:44.071153
95,119,2024-02-28 19:20:44.071153
93,120,2024-02-28 19:20:44.073174
94,119,2024-02-28 19:20:44.073174
101,116,2024-02-28 19:20:44.074174
103,114,2024-02-28 19:20:44.075160
106,113,2024-02-28 19:20:44.075160
106,114,2024-02-28 19:20:44.076174
109,111,2024-02-28 19:20:44.077155
113,111,2024-02-28 19:20:44.078157
119,111,2024-02-28 19:20:44.079158
118,107,2024-02-28 19:20:44.079158
120,100,2024-02-28 19:20:44.080175
122,100,2024-02-28 19:20:44.081159
122,103,2024-02-28 19:20:44.081159
84,67,2024-02-28 19:20:44.082175
59,42,2024-02-28 19:20:44.083159
97,83,2024-02-28 19:20:44.083159
114,114,2024-02-28 19:20:44.084159
135,2024-02-28 19:20:44.085157
109,127,2024-02-28 19:20:44.086158
103,117,2024-02-28 19:20:44.087209
116,130,2024-02-28 19:20:44.088349
133,148,2024-02-28 19:20:44.088349
132,146,2024-02-28 19:20:44.089363
125,138,2024-02-28 19:20:44.090416
124,133,2024-02-28 19:20:44.091444
123,130,2024-02-28 19:20:44.091444
119,123,2024-02-28 19:20:44.092493
121,118,2024-02-28 19:20:44.093936
121,116,2024-02-28 19:20:44.093936
118,108,2024-02-28 19:20:44.094983
113,101,2024-02-28 19:20:44.095995
107,95,2024-02-28 19:20:44.095995
106,94,2024-02-28 19:20:44.097038
104,98,2024-02-28 19:20:44.098047
101,101,2024-02-28 19:20:44.098047
104,106,2024-02-28 19:20:44.099086
106,109,2024-02-28 19:20:44.100097
106,113,2024-02-28 19:20:44.100097
103,114,2024-02-28 19:20:44.101117
102,113,2024-02-28 19:20:44.102135
101,115,2024-02-28 19:20:44.102135
101,114,2024-02-28 19:20:44.103148
103,110,2024-02-28 19:20:44.104157
102,110,2024-02-28 19:20:44.104157
104,107,2024-02-28 19:20:44.105270
104,107,2024-02-28 19:20:44.106283
106,107,2024-02-28 19:20:44.107315
108,106,2024-02-28 19:20:44.108331
112,110,2024-02-28 19:20:44.109329
111,2024-02-28 19:20:44.110396
91,91,2024-02-28 19:20:44.110396
88,82,2024-02-28 19:20:44.111408
102,94,2024-02-28 19:20:44.112432
86,77,2024-02-28 19:20:44.112432
64,56,2024-02-28 19:20:44.113465
88,78,2024-02-28 19:20:44.114515
85,79,2024-02-28 19:20:44.114515
107,109,2024-02-28 19:20:44.115527
94,103,2024-02-28 19:20:44.116536
130,145,2024-02-28 19:20:44.116536
148,166,2024-02-28 19:20:44.117557
157,179,2024-02-28 19:20:44.118578
159,179,2024-02-28 19:20:44.119588
154,166,2024-02-28 19:20:44.120611
151,154,2024-02-28 19:20:44.120611
146,141,2024-02-28 19:20:44.121684
138,131,2024-02-28 19:20:44.122698
130,121,2024-02-28 19:20:44.124545
124,111,2024-02-28 19:20:44.125760
121,100,2024-02-28 19:20:44.126998
118,91,2024-02-28 19:20:44.128076
110,89,2024-02-28 19:20:44.129058
104,91,2024-02-28 19:20:44.129058
101,92,2024-02-28 19:20:44.130557
100,93,2024-02-28 19:20:44.131553
100,98,2024-02-28 19:20:44.131553
102,102,2024-02-28 19:20:44.132994
104,109,2024-02-28 19:20:44.132994
103,105,2024-02-28 19:20:44.134019
105,102,2024-02-28 19:20:44.135283
104,107,2024-02-28 19:20:44.135283
111,2024-02-28 19:20:44.136307
82,96,2024-02-28 19:20:44.137570
70,89,2024-02-28 19:20:44.138595
84,104,2024-02-28 19:20:44.138595
102,124,2024-02-28 19:20:44.139614
104,130,2024-02-28 19:20:44.140960
105,129,2024-02-28 19:20:44.141998
102,126,2024-02-28 19:20:44.141998
101,121,2024-02-28 19:20:44.143014
100,121,2024-02-28 19:20:44.144027
105,121,2024-02-28 19:20:44.145063
107,117,2024-02-28 19:20:44.146082
81,85,2024-02-28 19:20:44.146082
69,63,2024-02-28 19:20:44.147098
82,68,2024-02-28 19:20:44.148110
68,55,2024-02-28 19:20:44.152346
104,100,2024-02-28 19:20:44.153374
121,125,2024-02-28 19:20:44.153374
136,142,2024-02-28 19:20:44.154443
139,150,2024-02-28 19:20:44.155455
138,147,2024-02-28 19:20:44.156739
139,142,2024-02-28 19:20:44.157792
138,138,2024-02-28 19:20:44.157792
138,134,2024-02-28 19:20:44.158851
137,126,2024-02-28 19:20:44.159879
136,123,2024-02-28 19:20:44.159879
136,117,2024-02-28 19:20:44.160879
132,111,2024-02-28 19:20:44.161880
128,106,2024-02-28 19:20:44.162880
124,102,2024-02-28 19:20:44.162880
123,98,2024-02-28 19:20:44.163880
126,98,2024-02-28 19:20:44.164880
99,2024-02-28 19:20:44.165881
97,80,2024-02-28 19:20:44.165881
91,76,2024-02-28 19:20:44.166881
103,93,2024-02-28 19:20:44.167881
111,116,2024-02-28 19:20:44.168881
104,123,2024-02-28 19:20:44.168881
100,121,2024-02-28 19:20:44.169881
101,119,2024-02-28 19:20:44.169881
107,117,2024-02-28 19:20:44.170882
107,116,2024-02-28 19:20:44.171882
107,115,2024-02-28 19:20:44.172883
105,115,2024-02-28 19:20:44.173882
103,117,2024-02-28 19:20:44.173882
102,116,2024-02-28 19:20:44.174882
103,114,2024-02-28 19:20:44.174882
102,113,2024-02-28 19:20:44.175882
105,111,2024-02-28 19:20:44.176882
104,105,2024-02-28 19:20:44.176882
106,106,2024-02-28 19:20:44.177882
105,106,2024-02-28 19:20:44.178883
71,67,2024-02-28 19:20:44.178883
45,39,2024-02-28 19:20:44.179884
89,84,2024-02-28 19:20:44.179884
110,113,2024-02-28 19:20:44.180883
120,134,2024-02-28 19:20:44.181883
124,146,2024-02-28 19:20:44.181883
123,148,2024-02-28 19:20:44.182884
120,144,2024-02-28 19:20:44.183884
123,136,2024-02-28 19:20:44.183884
124,130,2024-02-28 19:20:44.184884
123,125,2024-02-28 19:20:44.185904
120,116,2024-02-28 19:20:44.186905
112,2024-02-28 19:20:44.187905
101,91,2024-02-28 19:20:44.188886
95,80,2024-02-28 19:20:44.189889
106,94,2024-02-28 19:20:44.189889
116,117,2024-02-28 19:20:44.190886
114,125,2024-02-28 19:20:44.191886
115,125,2024-02-28 19:20:44.191886
113,119,2024-02-28 19:20:44.192886
115,114,2024-02-28 19:20:44.193886
115,116,2024-02-28 19:20:44.193886
115,111,2024-02-28 19:20:44.194893
115,108,2024-02-28 19:20:44.194893
115,111,2024-02-28 19:20:44.195893
117,109,2024-02-28 19:20:44.196894
118,112,2024-02-28 19:20:44.196894
116,115,2024-02-28 19:20:44.197893
114,112,2024-02-28 19:20:44.198894
115,108,2024-02-28 19:20:44.198894
117,109,2024-02-28 19:20:44.199893
116,110,2024-02-28 19:20:44.200894
116,111,2024-02-28 19:20:44.200894
118,112,2024-02-28 19:20:44.201894
116,110,2024-02-28 19:20:44.202894
111,108,2024-02-28 19:20:44.203894
108,106,2024-02-28 19:20:44.203894
108,106,2024-02-28 19:20:44.204895
112,112,2024-02-28 19:20:44.205895
110,110,2024-02-28 19:20:44.206897
76,72,2024-02-28 19:20:44.207896
52,46,2024-02-28 19:20:44.207896
94,93,2024-02-28 19:20:44.209405
110,120,2024-02-28 19:20:44.209405
135,2024-02-28 19:20:44.210411
105,124,2024-02-28 19:20:44.211414
97,116,2024-02-28 19:20:44.211414
108,125,2024-02-28 19:20:44.212412
128,138,2024-02-28 19:20:44.213412
129,136,2024-02-28 19:20:44.213412
125,133,2024-02-28 19:20:44.214413
124,128,2024-02-28 19:20:44.215413
125,122,2024-02-28 19:20:44.215413
122,116,2024-02-28 19:20:44.216414
119,113,2024-02-28 19:20:44.216414
115,111,2024-02-28 19:20:44.217413
115,108,2024-02-28 19:20:44.218414
116,106,2024-02-28 19:20:44.219413
118,104,2024-02-28 19:20:44.219413
115,105,2024-02-28 19:20:44.220413
109,103,2024-02-28 19:20:44.221414
107,102,2024-02-28 19:20:44.221414
109,103,2024-02-28 19:20:44.222415
108,105,2024-02-28 19:20:44.223415
107,102,2024-02-28 19:20:44.223415
109,105,2024-02-28 19:20:44.224415
110,107,2024-02-28 19:20:44.225415
111,108,2024-02-28 19:20:44.226416
109,109,2024-02-28 19:20:44.226416
107,109,2024-02-28 19:20:44.227416
106,107,2024-02-28 19:20:44.228415
111,105,2024-02-28 19:20:44.228415
111,108,2024-02-28 19:20:44.229415
112,112,2024-02-28 19:20:44.230417
111,114,2024-02-28 19:20:44.230417
108,112,2024-02-28 19:20:44.231416
112,2024-02-28 19:20:44.232416
84,93,2024-02-28 19:20:44.232416
81,86,2024-02-28 19:20:44.233417
95,98,2024-02-28 19:20:44.234417
77,80,2024-02-28 19:20:44.235417
53,59,2024-02-28 19:20:44.235417
78,79,2024-02-28 19:20:44.236417
70,82,2024-02-28 19:20:44.237418
111,133,2024-02-28 19:20:44.237418
130,159,2024-02-28 19:20:44.238418
127,159,2024-02-28 19:20:44.239419
130,165,2024-02-28 19:20:44.240419
141,173,2024-02-28 19:20:44.240419
145,164,2024-02-28 19:20:44.241418
143,149,2024-02-28 19:20:44.242418
141,139,2024-02-28 19:20:44.242418
140,127,2024-02-28 19:20:44.243419
138,118,2024-02-28 19:20:44.244419
134,110,2024-02-28 19:20:44.244419
131,105,2024-02-28 19:20:44.245419
129,96,2024-02-28 19:20:44.246420
120,93,2024-02-28 19:20:44.247420
115,95,2024-02-28 19:20:44.247420
114,93,2024-02-28 19:20:44.248420
114,93,2024-02-28 19:20:44.249420
112,93,2024-02-28 19:20:44.253020
110,90,2024-02-28 19:20:44.254034
106,95,2024-02-28 19:20:44.255066
102,97,2024-02-28 19:20:44.255066
97,101,2024-02-28 19:20:44.256098
94,107,2024-02-28 19:20:44.257130
94,110,2024-02-28 19:20:44.257130
112,2024-02-28 19:20:44.258160
76,95,2024-02-28 19:20:44.259194
67,86,2024-02-28 19:20:44.259194
80,102,2024-02-28 19:20:44.260206
100,124,2024-02-28 19:20:44.260206
103,128,2024-02-28 19:20:44.261243
100,127,2024-02-28 19:20:44.262262
100,131,2024-02-28 19:20:44.262262
103,129,2024-02-28 19:20:44.263290
107,125,2024-02-28 19:20:44.264305
113,122,2024-02-28 19:20:44.264305
110,117,2024-02-28 19:20:44.265317
74,75,2024-02-28 19:20:44.266619
54,41,2024-02-28 19:20:44.266619
98,84,2024-02-28 19:20:44.267651
117,111,2024-02-28 19:20:44.268666
131,130,2024-02-28 19:20:44.268666
136,141,2024-02-28 19:20:44.269678
134,142,2024-02-28 19:20:44.269678
134,142,2024-02-28 19:20:44.270690
138,140,2024-02-28 19:20:44.271709
138,136,2024-02-28 19:20:44.272723
134,133,2024-02-28 19:20:44.272723
131,126,2024-02-28 19:20:44.273767
128,115,2024-02-28 19:20:44.273767
126,103,2024-02-28 19:20:44.274828
124,92,2024-02-28 19:20:44.275840
121,91,2024-02-28 19:20:44.275840
120,95,2024-02-28 19:20:44.276858
116,98,2024-02-28 19:20:44.277893
112,98,2024-02-28 19:20:44.277893
109,101,2024-02-28 19:20:44.278905
106,2024-02-28 19:20:44.278905
89,93,2024-02-28 19:20:44.279917
81,87,2024-02-28 19:20:44.280931
91,99,2024-02-28 19:20:44.280931
107,120,2024-02-28 19:20:44.282114
109,126,2024-02-28 19:20:44.283129
110,129,2024-02-28 19:20:44.283129
111,125,2024-02-28 19:20:44.284142
112,119,2024-02-28 19:20:44.284142
115,119,2024-02-28 19:20:44.285153
113,118,2024-02-28 19:20:44.286172
110,116,2024-02-28 19:20:44.287187
107,119,2024-02-28 19:20:44.287187
104,120,2024-02-28 19:20:44.288429
106,118,2024-02-28 19:20:44.289444
106,118,2024-02-28 19:20:44.289444
106,118,2024-02-28 19:20:44.290456
104,113,2024-02-28 19:20:44.291469
108,112,2024-02-28 19:20:44.291469
108,109,2024-02-28 19:20:44.292487
72,66,2024-02-28 19:20:44.292487
47,36,2024-02-28 19:20:44.293555
91,80,2024-02-28 19:20:44.294570
116,108,2024-02-28 19:20:44.294570
130,129,2024-02-28 19:20:44.295593
133,138,2024-02-28 19:20:44.296608
130,139,2024-02-28 19:20:44.296608
127,134,2024-02-28 19:20:44.297884
124,128,2024-02-28 19:20:44.298914
123,125,2024-02-28 19:20:44.298914
120,125,2024-02-28 19:20:44.299927
118,120,2024-02-28 19:20:44.299927
114,2024-02-28 19:20:44.300940
104,93,2024-02-28 19:20:44.301975
97,81,2024-02-28 19:20:44.301975
107,98,2024-02-28 19:20:44.303009
120,120,2024-02-28 19:20:44.304081
123,126,2024-02-28 19:20:44.304081
124,122,2024-02-28 19:20:44.305090
122,121,2024-02-28 19:20:44.306106
119,119,2024-02-28 19:20:44.306106
116,116,2024-02-28 19:20:44.307311
114,112,2024-02-28 19:20:44.308329
110,105,2024-02-28 19:20:44.308329
108,105,2024-02-28 19:20:44.309342
108,105,2024-02-28 19:20:44.310422
107,105,2024-02-28 19:20:44.310422
107,108,2024-02-28 19:20:44.311434
104,112,2024-02-28 19:20:44.311434
99,110,2024-02-28 19:20:44.312453
101,109,2024-02-28 19:20:44.313735
100,109,2024-02-28 19:20:44.313735
101,110,2024-02-28 19:20:44.314747
103,112,2024-02-28 19:20:44.314747
106,113,2024-02-28 19:20:44.315759
109,114,2024-02-28 19:20:44.316772
107,115,2024-02-28 19:20:44.316772
105,110,2024-02-28 19:20:44.317785
108,107,2024-02-28 19:20:44.317785
108,106,2024-02-28 19:20:44.318848
78,65,2024-02-28 19:20:44.319861
53,38,2024-02-28 19:20:44.319861
99,83,2024-02-28 19:20:44.320880
117,111,2024-02-28 19:20:44.321899
128,2024-02-28 19:20:44.321899
111,117,2024-02-28 19:20:44.323066
104,111,2024-02-28 19:20:44.324080
116,124,2024-02-28 19:20:44.324080
129,143,2024-02-28 19:20:44.325109
128,144,2024-02-28 19:20:44.326131
130,141,2024-02-28 19:20:44.326131
128,140,2024-02-28 19:20:44.327162
127,135,2024-02-28 19:20:44.328177
125,128,2024-02-28 19:20:44.329472
125,121,2024-02-28 19:20:44.329472
132,115,2024-02-28 19:20:44.330486
133,110,2024-02-28 19:20:44.331499
127,107,2024-02-28 19:20:44.331499
122,105,2024-02-28 19:20:44.332520
115,104,2024-02-28 19:20:44.333533
116,107,2024-02-28 19:20:44.334581
113,107,2024-02-28 19:20:44.334581
107,107,2024-02-28 19:20:44.335600
103,107,2024-02-28 19:20:44.336615
102,105,2024-02-28 19:20:44.336615
103,105,2024-02-28 19:20:44.337646
104,105,2024-02-28 19:20:44.338661
101,107,2024-02-28 19:20:44.338661
100,107,2024-02-28 19:20:44.339731
98,108,2024-02-28 19:20:44.340745
97,109,2024-02-28 19:20:44.340745
98,109,2024-02-28 19:20:44.341762
96,111,2024-02-28 19:20:44.341762
97,109,2024-02-28 19:20:44.342804
95,106,2024-02-28 19:20:44.343818
97,106,2024-02-28 19:20:44.345030
107,2024-02-28 19:20:44.346031
80,88,2024-02-28 19:20:44.347030
75,81,2024-02-28 19:20:44.348192
87,101,2024-02-28 19:20:44.349194
71,86,2024-02-28 19:20:44.350193
50,66,2024-02-28 19:20:44.351429
73,89,2024-02-28 19:20:44.352467
84,97,2024-02-28 19:20:44.352467
80,90,2024-02-28 19:20:44.353478
131,136,2024-02-28 19:20:44.354512
149,156,2024-02-28 19:20:44.355544
151,161,2024-02-28 19:20:44.356576
166,171,2024-02-28 19:20:44.356576
167,168,2024-02-28 19:20:44.357593
162,155,2024-02-28 19:20:44.358610
160,141,2024-02-28 19:20:44.359631
154,130,2024-02-28 19:20:44.359631
153,118,2024-02-28 19:20:44.360913
150,110,2024-02-28 19:20:44.360913
147,101,2024-02-28 19:20:44.361980
142,97,2024-02-28 19:20:44.363012
135,98,2024-02-28 19:20:44.363012
127,99,2024-02-28 19:20:44.364072
120,103,2024-02-28 19:20:44.365096
114,103,2024-02-28 19:20:44.365096
106,106,2024-02-28 19:20:44.366130
101,103,2024-02-28 19:20:44.367143
96,98,2024-02-28 19:20:44.368256
93,99,2024-02-28 19:20:44.368256
87,102,2024-02-28 19:20:44.369267
85,104,2024-02-28 19:20:44.370307
84,108,2024-02-28 19:20:44.370307
110,2024-02-28 19:20:44.371317
65,91,2024-02-28 19:20:44.372358
59,79,2024-02-28 19:20:44.373372
77,97,2024-02-28 19:20:44.374386
99,123,2024-02-28 19:20:44.374386
102,124,2024-02-28 19:20:44.375403
100,122,2024-02-28 19:20:44.376639
105,122,2024-02-28 19:20:44.376639
104,121,2024-02-28 19:20:44.377655
105,120,2024-02-28 19:20:44.377655
111,122,2024-02-28 19:20:44.378693
116,122,2024-02-28 19:20:44.379706
82,80,2024-02-28 19:20:44.379706
54,48,2024-02-28 19:20:44.380733
98,88,2024-02-28 19:20:44.381755
119,111,2024-02-28 19:20:44.381755
135,133,2024-02-28 19:20:44.382778
139,141,2024-02-28 19:20:44.383793
138,139,2024-02-28 19:20:44.383793
141,134,2024-02-28 19:20:44.384803
142,131,2024-02-28 19:20:44.384803
140,130,2024-02-28 19:20:44.385823
137,127,2024-02-28 19:20:44.386852
140,121,2024-02-28 19:20:44.387868
136,116,2024-02-28 19:20:44.387868
131,113,2024-02-28 19:20:44.388881
125,112,2024-02-28 19:20:44.389892
120,106,2024-02-28 19:20:44.389892
116,101,2024-02-28 19:20:44.390903
110,102,2024-02-28 19:20:44.392376
107,99,2024-02-28 19:20:44.392376
104,101,2024-02-28 19:20:44.393394
101,2024-02-28 19:20:44.394440
81,84,2024-02-28 19:20:44.395444
77,74,2024-02-28 19:20:44.395444
87,89,2024-02-28 19:20:44.396642
100,115,2024-02-28 19:20:44.397770
99,123,2024-02-28 19:20:44.397770
98,124,2024-02-28 19:20:44.399162
96,123,2024-02-28 19:20:44.399162
100,124,2024-02-28 19:20:44.400188
100,125,2024-02-28 19:20:44.401219
100,124,2024-02-28 19:20:44.401219
100,124,2024-02-28 19:20:44.402239
99,119,2024-02-28 19:20:44.402239
99,116,2024-02-28 19:20:44.403268
101,116,2024-02-28 19:20:44.404282
105,115,2024-02-28 19:20:44.404282
104,110,2024-02-28 19:20:44.405296
108,106,2024-02-28 19:20:44.406307
116,105,2024-02-28 19:20:44.407620
117,101,2024-02-28 19:20:44.407620
86,62,2024-02-28 19:20:44.408640
63,39,2024-02-28 19:20:44.409635
108,83,2024-02-28 19:20:44.410694
127,109,2024-02-28 19:20:44.410694
138,132,2024-02-28 19:20:44.411714
144,145,2024-02-28 19:20:44.412728
144,147,2024-02-28 19:20:44.412728
140,145,2024-02-28 19:20:44.413743
135,140,2024-02-28 19:20:44.414782
134,137,2024-02-28 19:20:44.414782
135,129,2024-02-28 19:20:44.415793
130,121,2024-02-28 19:20:44.416831
115,2024-02-28 19:20:44.416831
103,92,2024-02-28 19:20:44.417845
92,80,2024-02-28 19:20:44.418860
102,93,2024-02-28 19:20:44.418860
111,115,2024-02-28 19:20:44.419878
106,116,2024-02-28 19:20:44.420893
103,109,2024-02-28 19:20:44.421912
107,111,2024-02-28 19:20:44.421912
111,117,2024-02-28 19:20:44.423143
110,117,2024-02-28 19:20:44.424189
110,110,2024-02-28 19:20:44.424189
106,107,2024-02-28 19:20:44.425207
104,105,2024-02-28 19:20:44.426219
106,109,2024-02-28 19:20:44.427320
105,105,2024-02-28 19:20:44.427320
102,102,2024-02-28 19:20:44.428333
102,106,2024-02-28 19:20:44.428333
99,109,2024-02-28 19:20:44.429346
96,112,2024-02-28 19:20:44.430357
97,114,2024-02-28 19:20:44.430357
96,113,2024-02-28 19:20:44.431373
97,114,2024-02-28 19:20:44.432410
99,117,2024-02-28 19:20:44.432410
100,114,2024-02-28 19:20:44.433430
103,118,2024-02-28 19:20:44.434445
105,118,2024-02-28 19:20:44.434445
110,118,2024-02-28 19:20:44.435455
111,116,2024-02-28 19:20:44.435455
80,77,2024-02-28 19:20:44.436514
58,45,2024-02-28 19:20:44.437527
107,87,2024-02-28 19:20:44.438527
124,115,2024-02-28 19:20:44.438527
132,2024-02-28 19:20:44.439889
122,122,2024-02-28 19:20:44.440903
117,113,2024-02-28 19:20:44.440903
131,122,2024-02-28 19:20:44.441927
147,139,2024-02-28 19:20:44.442941
148,141,2024-02-28 19:20:44.442941
144,137,2024-02-28 19:20:44.443971
143,132,2024-02-28 19:20:44.444985
140,125,2024-02-28 19:20:44.444985
136,120,2024-02-28 19:20:44.446006
131,112,2024-02-28 19:20:44.447182
124,109,2024-02-28 19:20:44.447182
118,103,2024-02-28 19:20:44.448214
111,103,2024-02-28 19:20:44.449232
106,101,2024-02-28 19:20:44.449949
102,98,2024-02-28 19:20:44.449949
95,96,2024-02-28 19:20:44.451030
91,100,2024-02-28 19:20:44.452050
91,101,2024-02-28 19:20:44.452050
90,107,2024-02-28 19:20:44.453066
90,110,2024-02-28 19:20:44.454212
95,114,2024-02-28 19:20:44.455282
95,115,2024-02-28 19:20:44.456290
96,111,2024-02-28 19:20:44.457289
94,112,2024-02-28 19:20:44.457289
94,114,2024-02-28 19:20:44.458289
95,111,2024-02-28 19:20:44.459290
101,110,2024-02-28 19:20:44.459290
102,112,2024-02-28 19:20:44.460290
102,110,2024-02-28 19:20:44.461290
104,111,2024-02-28 19:20:44.462291
109,112,2024-02-28 19:20:44.462291
110,2024-02-28 19:20:44.463290
91,91,2024-02-28 19:20:44.464291
93,87,2024-02-28 19:20:44.465291
108,101,2024-02-28 19:20:44.465291
97,90,2024-02-28 19:20:44.466292
76,67,2024-02-28 19:20:44.467292
100,86,2024-02-28 19:20:44.468293
92,81,2024-02-28 19:20:44.469295
130,123,2024-02-28 19:20:44.469295
152,146,2024-02-28 19:20:44.470292
148,152,2024-02-28 19:20:44.471293
152,158,2024-02-28 19:20:44.472294
158,163,2024-02-28 19:20:44.472294
153,158,2024-02-28 19:20:44.473293
145,146,2024-02-28 19:20:44.474293
139,133,2024-02-28 19:20:44.475293
138,124,2024-02-28 19:20:44.475293
132,112,2024-02-28 19:20:44.476293
122,103,2024-02-28 19:20:44.477296
117,98,2024-02-28 19:20:44.477296
108,93,2024-02-28 19:20:44.478294
103,90,2024-02-28 19:20:44.479297
101,92,2024-02-28 19:20:44.480294
98,97,2024-02-28 19:20:44.480294
95,102,2024-02-28 19:20:44.481295
95,103,2024-02-28 19:20:44.482295
99,105,2024-02-28 19:20:44.482295
98,109,2024-02-28 19:20:44.483295
98,111,2024-02-28 19:20:44.484295
98,111,2024-02-28 19:20:44.485299
97,111,2024-02-28 19:20:44.486296
94,111,2024-02-28 19:20:44.486296
108,2024-02-28 19:20:44.487316
77,91,2024-02-28 19:20:44.488298
72,87,2024-02-28 19:20:44.489303
85,98,2024-02-28 19:20:44.489303
102,117,2024-02-28 19:20:44.490302
105,122,2024-02-28 19:20:44.491300
107,124,2024-02-28 19:20:44.491300
115,121,2024-02-28 19:20:44.492299
119,123,2024-02-28 19:20:44.492299
120,118,2024-02-28 19:20:44.493360
121,119,2024-02-28 19:20:44.494373
121,116,2024-02-28 19:20:44.494373
91,75,2024-02-28 19:20:44.495390
68,45,2024-02-28 19:20:44.495390
89,63,2024-02-28 19:20:44.496430
119,103,2024-02-28 19:20:44.497441
140,135,2024-02-28 19:20:44.497441
148,148,2024-02-28 19:20:44.498492
143,148,2024-02-28 19:20:44.499505
134,147,2024-02-28 19:20:44.499505
131,144,2024-02-28 19:20:44.500698
127,137,2024-02-28 19:20:44.501721
124,130,2024-02-28 19:20:44.501721
123,122,2024-02-28 19:20:44.502734
119,111,2024-02-28 19:20:44.502734
118,104,2024-02-28 19:20:44.503746
116,101,2024-02-28 19:20:44.504756
114,100,2024-02-28 19:20:44.505842
112,98,2024-02-28 19:20:44.505842
111,97,2024-02-28 19:20:44.506859
108,96,2024-02-28 19:20:44.507880
105,99,2024-02-28 19:20:44.508919
102,2024-02-28 19:20:44.509920
79,88,2024-02-28 19:20:44.509920
72,86,2024-02-28 19:20:44.511243
84,103,2024-02-28 19:20:44.511243
102,124,2024-02-28 19:20:44.512268
100,126,2024-02-28 19:20:44.513283
102,127,2024-02-28 19:20:44.513283
102,127,2024-02-28 19:20:44.514334
103,125,2024-02-28 19:20:44.515348
105,122,2024-02-28 19:20:44.515348
107,117,2024-02-28 19:20:44.516624
108,111,2024-02-28 19:20:44.517637
110,107,2024-02-28 19:20:44.518650
111,110,2024-02-28 19:20:44.518650
112,113,2024-02-28 19:20:44.519666
110,116,2024-02-28 19:20:44.520683
114,111,2024-02-28 19:20:44.521720
117,108,2024-02-28 19:20:44.521720
122,110,2024-02-28 19:20:44.522751
126,110,2024-02-28 19:20:44.523766
96,70,2024-02-28 19:20:44.523766
71,41,2024-02-28 19:20:44.524780
115,85,2024-02-28 19:20:44.524780
131,110,2024-02-28 19:20:44.525838
139,130,2024-02-28 19:20:44.526852
140,141,2024-02-28 19:20:44.527886
135,142,2024-02-28 19:20:44.528934
132,142,2024-02-28 19:20:44.528934
128,137,2024-02-28 19:20:44.529948
123,131,2024-02-28 19:20:44.530962
120,124,2024-02-28 19:20:44.530962
118,116,2024-02-28 19:20:44.532251
112,2024-02-28 19:20:44.533265
91,92,2024-02-28 19:20:44.533265
82,82,2024-02-28 19:20:44.534295
93,94,2024-02-28 19:20:44.535309
109,115,2024-02-28 19:20:44.535309
106,119,2024-02-28 19:20:44.536323
101,114,2024-02-28 19:20:44.537338
100,114,2024-02-28 19:20:44.537338
101,116,2024-02-28 19:20:44.538353
100,119,2024-02-28 19:20:44.539365
102,120,2024-02-28 19:20:44.539365
102,116,2024-02-28 19:20:44.540400
100,113,2024-02-28 19:20:44.541414
100,112,2024-02-28 19:20:44.541414
102,113,2024-02-28 19:20:44.542434
106,114,2024-02-28 19:20:44.543474
107,110,2024-02-28 19:20:44.543474
109,112,2024-02-28 19:20:44.544524
113,113,2024-02-28 19:20:44.544524
113,113,2024-02-28 19:20:44.545538
116,111,2024-02-28 19:20:44.546550
119,107,2024-02-28 19:20:44.547908
120,104,2024-02-28 19:20:44.547908
122,103,2024-02-28 19:20:44.548924
117,103,2024-02-28 19:20:44.549962
115,106,2024-02-28 19:20:44.549962
118,110,2024-02-28 19:20:44.550972
119,111,2024-02-28 19:20:44.552020
89,77,2024-02-28 19:20:44.552020
63,47,2024-02-28 19:20:44.553035
101,91,2024-02-28 19:20:44.554050
119,121,2024-02-28 19:20:44.555059
138,2024-02-28 19:20:44.555059
117,126,2024-02-28 19:20:44.556520
108,115,2024-02-28 19:20:44.557536
119,126,2024-02-28 19:20:44.557536
132,145,2024-02-28 19:20:44.558547
130,145,2024-02-28 19:20:44.558547
126,136,2024-02-28 19:20:44.559624
124,131,2024-02-28 19:20:44.560639
120,124,2024-02-28 19:20:44.560639
117,117,2024-02-28 19:20:44.561660
112,110,2024-02-28 19:20:44.562673
112,106,2024-02-28 19:20:44.562673
111,101,2024-02-28 19:20:44.563918
109,100,2024-02-28 19:20:44.564929
106,102,2024-02-28 19:20:44.565956
106,103,2024-02-28 19:20:44.567035
105,103,2024-02-28 19:20:44.567035
100,106,2024-02-28 19:20:44.568065
98,108,2024-02-28 19:20:44.569096
98,109,2024-02-28 19:20:44.570108
98,114,2024-02-28 19:20:44.571144
100,116,2024-02-28 19:20:44.571144
102,114,2024-02-28 19:20:44.572389
101,114,2024-02-28 19:20:44.572389
108,111,2024-02-28 19:20:44.573453
110,110,2024-02-28 19:20:44.574493
110,106,2024-02-28 19:20:44.574493
111,107,2024-02-28 19:20:44.575506
109,108,2024-02-28 19:20:44.576521
110,111,2024-02-28 19:20:44.576521
111,114,2024-02-28 19:20:44.577531
112,115,2024-02-28 19:20:44.577531
116,2024-02-28 19:20:44.578556
89,96,2024-02-28 19:20:44.579851
84,86,2024-02-28 19:20:44.580863
97,99,2024-02-28 19:20:44.580863
91,89,2024-02-28 19:20:44.581881
75,71,2024-02-28 19:20:44.581881
84,86,2024-02-28 19:20:44.582894
68,70,2024-02-28 19:20:44.583908
87,89,2024-02-28 19:20:44.583908
76,88,2024-02-28 19:20:44.584919
111,131,2024-02-28 19:20:44.585945
132,157,2024-02-28 19:20:44.585945
133,159,2024-02-28 19:20:44.586977
142,162,2024-02-28 19:20:44.587992
160,169,2024-02-28 19:20:44.589007
164,162,2024-02-28 19:20:44.589007
159,149,2024-02-28 19:20:44.590022
158,137,2024-02-28 19:20:44.591061
153,125,2024-02-28 19:20:44.591061
149,113,2024-02-28 19:20:44.592081
142,106,2024-02-28 19:20:44.592081
136,100,2024-02-28 19:20:44.593112
132,95,2024-02-28 19:20:44.594126
125,92,2024-02-28 19:20:44.594126
116,86,2024-02-28 19:20:44.595408
107,91,2024-02-28 19:20:44.595408
102,96,2024-02-28 19:20:44.596441
99,98,2024-02-28 19:20:44.597454
98,100,2024-02-28 19:20:44.597454
97,104,2024-02-28 19:20:44.598471
94,107,2024-02-28 19:20:44.599484
98,112,2024-02-28 19:20:44.599484
114,2024-02-28 19:20:44.600503
75,96,2024-02-28 19:20:44.601518
70,85,2024-02-28 19:20:44.601518
82,99,2024-02-28 19:20:44.602535
100,123,2024-02-28 19:20:44.602535
100,133,2024-02-28 19:20:44.603548
97,132,2024-02-28 19:20:44.604585
98,129,2024-02-28 19:20:44.605668
97,129,2024-02-28 19:20:44.605668
96,122,2024-02-28 19:20:44.606686
99,116,2024-02-28 19:20:44.607715
99,107,2024-02-28 19:20:44.608733
67,71,2024-02-28 19:20:44.608733
40,39,2024-02-28 19:20:44.608733
82,80,2024-02-28 19:20:44.610243
103,105,2024-02-28 19:20:44.611438
119,127,2024-02-28 19:20:44.611438
129,138,2024-02-28 19:20:44.612457
132,141,2024-02-28 19:20:44.613471
132,140,2024-02-28 19:20:44.613471
134,132,2024-02-28 19:20:44.614485
135,126,2024-02-28 19:20:44.614485
137,122,2024-02-28 19:20:44.615551
139,116,2024-02-28 19:20:44.616565
138,117,2024-02-28 19:20:44.616565
133,117,2024-02-28 19:20:44.617595
130,109,2024-02-28 19:20:44.618610
127,106,2024-02-28 19:20:44.618610
120,105,2024-02-28 19:20:44.619622
119,104,2024-02-28 19:20:44.619622
116,104,2024-02-28 19:20:44.620637
112,104,2024-02-28 19:20:44.621655
105,2024-02-28 19:20:44.621655
90,90,2024-02-28 19:20:44.622726
82,84,2024-02-28 19:20:44.623738
95,99,2024-02-28 19:20:44.623738
112,116,2024-02-28 19:20:44.624750
109,121,2024-02-28 19:20:44.625763
108,121,2024-02-28 19:20:44.626788
110,121,2024-02-28 19:20:44.627807
114,121,2024-02-28 19:20:44.627807
113,119,2024-02-28 19:20:44.628818
111,115,2024-02-28 19:20:44.629849
114,115,2024-02-28 19:20:44.629849
114,115,2024-02-28 19:20:44.630861
113,113,2024-02-28 19:20:44.631886
110,111,2024-02-28 19:20:44.631886
111,106,2024-02-28 19:20:44.632896
112,102,2024-02-28 19:20:44.633972
111,104,2024-02-28 19:20:44.633972
115,111,2024-02-28 19:20:44.634985
114,110,2024-02-28 19:20:44.635998
82,75,2024-02-28 19:20:44.635998
54,45,2024-02-28 19:20:44.637009
96,87,2024-02-28 19:20:44.638033
112,119,2024-02-28 19:20:44.639046
127,142,2024-02-28 19:20:44.639046
132,149,2024-02-28 19:20:44.640060
132,148,2024-02-28 19:20:44.641079
127,141,2024-02-28 19:20:44.641079
125,136,2024-02-28 19:20:44.642349
122,131,2024-02-28 19:20:44.643368
116,125,2024-02-28 19:20:44.643368
113,118,2024-02-28 19:20:44.644398
106,2024-02-28 19:20:44.645414
92,81,2024-02-28 19:20:44.645414
89,71,2024-02-28 19:20:44.646444
103,89,2024-02-28 19:20:44.647460
122,114,2024-02-28 19:20:44.647460
120,121,2024-02-28 19:20:44.648470
116,125,2024-02-28 19:20:44.648470
116,125,2024-02-28 19:20:44.649483
115,123,2024-02-28 19:20:44.650496
110,116,2024-02-28 19:20:44.650496
110,113,2024-02-28 19:20:44.651509
102,110,2024-02-28 19:20:44.652530
97,106,2024-02-28 19:20:44.652530
98,105,2024-02-28 19:20:44.653546
102,105,2024-02-28 19:20:44.654580
103,103,2024-02-28 19:20:44.654580
100,107,2024-02-28 19:20:44.655612
102,110,2024-02-28 19:20:44.656626
103,112,2024-02-28 19:20:44.656626
102,110,2024-02-28 19:20:44.657963
105,111,2024-02-28 19:20:44.658978
112,112,2024-02-28 19:20:44.658978
116,110,2024-02-28 19:20:44.659988
114,110,2024-02-28 19:20:44.659988
113,107,2024-02-28 19:20:44.661013
111,106,2024-02-28 19:20:44.662032
116,110,2024-02-28 19:20:44.662032
116,109,2024-02-28 19:20:44.663047
82,76,2024-02-28 19:20:44.663047
59,57,2024-02-28 19:20:44.664116
76,69,2024-02-28 19:20:44.665129
106,104,2024-02-28 19:20:44.665129
135,2024-02-28 19:20:44.666144
119,132,2024-02-28 19:20:44.667178
109,125,2024-02-28 19:20:44.668192
124,138,2024-02-28 19:20:44.668192
141,154,2024-02-28 19:20:44.669226
140,148,2024-02-28 19:20:44.670241
136,141,2024-02-28 19:20:44.670241
135,135,2024-02-28 19:20:44.671256
131,125,2024-02-28 19:20:44.672275
128,115,2024-02-28 19:20:44.672275
125,108,2024-02-28 19:20:44.673577
122,107,2024-02-28 19:20:44.674594
119,104,2024-02-28 19:20:44.674594
114,103,2024-02-28 19:20:44.675749
113,99,2024-02-28 19:20:44.676760
108,101,2024-02-28 19:20:44.677864
104,106,2024-02-28 19:20:44.677864
100,109,2024-02-28 19:20:44.678876
100,112,2024-02-28 19:20:44.678876
100,109,2024-02-28 19:20:44.679926
100,108,2024-02-28 19:20:44.680944
96,113,2024-02-28 19:20:44.680944
97,111,2024-02-28 19:20:44.681982
101,108,2024-02-28 19:20:44.682997
103,107,2024-02-28 19:20:44.682997
103,107,2024-02-28 19:20:44.684010
108,110,2024-02-28 19:20:44.684010
111,112,2024-02-28 19:20:44.685070
113,116,2024-02-28 19:20:44.686086
111,115,2024-02-28 19:20:44.687102
111,110,2024-02-28 19:20:44.688114
111,109,2024-02-28 19:20:44.689114
106,2024-02-28 19:20:44.689114
89,85,2024-02-28 19:20:44.690113
87,77,2024-02-28 19:20:44.691114
99,88,2024-02-28 19:20:44.692114
86,76,2024-02-28 19:20:44.692114
62,54,2024-02-28 19:20:44.693114
82,78,2024-02-28 19:20:44.694115
75,81,2024-02-28 19:20:44.695115
113,130,2024-02-28 19:20:44.695115
132,155,2024-02-28 19:20:44.696120
137,154,2024-02-28 19:20:44.697121
139,155,2024-02-28 19:20:44.697121
150,162,2024-02-28 19:20:44.698121
150,155,2024-02-28 19:20:44.699121
146,148,2024-02-28 19:20:44.700122
142,141,2024-02-28 19:20:44.700122
140,128,2024-02-28 19:20:44.701122
132,122,2024-02-28 19:20:44.702123
125,110,2024-02-28 19:20:44.702123
122,101,2024-02-28 19:20:44.703123
119,94,2024-02-28 19:20:44.704123
116,94,2024-02-28 19:20:44.705125
111,95,2024-02-28 19:20:44.706124
108,97,2024-02-28 19:20:44.706124
103,98,2024-02-28 19:20:44.707366
95,99,2024-02-28 19:20:44.708387
94,102,2024-02-28 19:20:44.708387
94,108,2024-02-28 19:20:44.709402
91,111,2024-02-28 19:20:44.710400
95,111,2024-02-28 19:20:44.710913
95,109,2024-02-28 19:20:44.711936
93,108,2024-02-28 19:20:44.711936
113,2024-02-28 19:20:44.712950
76,98,2024-02-28 19:20:44.713961
70,88,2024-02-28 19:20:44.714992
84,100,2024-02-28 19:20:44.714992
105,119,2024-02-28 19:20:44.716008
108,120,2024-02-28 19:20:44.717025
111,120,2024-02-28 19:20:44.717025
111,119,2024-02-28 19:20:44.718039
113,120,2024-02-28 19:20:44.719054
113,116,2024-02-28 19:20:44.720055
117,119,2024-02-28 19:20:44.721065
120,116,2024-02-28 19:20:44.721065
91,77,2024-02-28 19:20:44.722116
65,47,2024-02-28 19:20:44.723148
107,88,2024-02-28 19:20:44.723148
126,116,2024-02-28 19:20:44.724187
135,140,2024-02-28 19:20:44.724187
141,152,2024-02-28 19:20:44.725259
144,153,2024-02-28 19:20:44.726274
143,149,2024-02-28 19:20:44.726274
143,138,2024-02-28 19:20:44.727303
141,127,2024-02-28 19:20:44.728351
135,117,2024-02-28 19:20:44.728351
131,108,2024-02-28 19:20:44.729381
125,105,2024-02-28 19:20:44.730414
119,101,2024-02-28 19:20:44.730414
114,100,2024-02-28 19:20:44.731442
111,100,2024-02-28 19:20:44.732486
106,95,2024-02-28 19:20:44.732486
101,97,2024-02-28 19:20:44.733497
101,102,2024-02-28 19:20:44.733497
100,106,2024-02-28 19:20:44.734524
112,2024-02-28 19:20:44.735818
77,97,2024-02-28 19:20:44.735818
70,87,2024-02-28 19:20:44.736830
81,100,2024-02-28 19:20:44.737840
99,118,2024-02-28 19:20:44.738871
105,122,2024-02-28 19:20:44.738871
102,125,2024-02-28 19:20:44.739881
106,125,2024-02-28 19:20:44.739881
104,123,2024-02-28 19:20:44.740903
102,119,2024-02-28 19:20:44.741923
105,114,2024-02-28 19:20:44.741923
110,111,2024-02-28 19:20:44.742940
113,109,2024-02-28 19:20:44.743954
116,108,2024-02-28 19:20:44.743954
116,109,2024-02-28 19:20:44.744968
115,108,2024-02-28 19:20:44.745984
117,108,2024-02-28 19:20:44.747004
113,105,2024-02-28 19:20:44.747004
116,112,2024-02-28 19:20:44.748019
119,112,2024-02-28 19:20:44.749031
87,78,2024-02-28 19:20:44.750055
55,43,2024-02-28 19:20:44.750055
99,85,2024-02-28 19:20:44.751265
122,108,2024-02-28 19:20:44.751265
137,131,2024-02-28 19:20:44.752335
140,141,2024-02-28 19:20:44.753346
137,141,2024-02-28 19:20:44.754449
133,138,2024-02-28 19:20:44.755462
132,135,2024-02-28 19:20:44.755462
127,131,2024-02-28 19:20:44.756477
123,125,2024-02-28 19:20:44.757493
121,122,2024-02-28 19:20:44.757493
119,2024-02-28 19:20:44.758508
100,94,2024-02-28 19:20:44.759519
92,81,2024-02-28 19:20:44.760540
107,96,2024-02-28 19:20:44.760540
124,117,2024-02-28 19:20:44.761554
118,121,2024-02-28 19:20:44.762602
112,120,2024-02-28 19:20:44.762602
106,117,2024-02-28 19:20:44.763618
106,118,2024-02-28 19:20:44.764633
107,118,2024-02-28 19:20:44.765648
104,117,2024-02-28 19:20:44.766987
101,119,2024-02-28 19:20:44.767987
98,115,2024-02-28 19:20:44.767987
98,109,2024-02-28 19:20:44.768987
104,106,2024-02-28 19:20:44.769987
105,105,2024-02-28 19:20:44.770988
104,103,2024-02-28 19:20:44.770988
106,99,2024-02-28 19:20:44.771987
107,97,2024-02-28 19:20:44.772987
108,101,2024-02-28 19:20:44.772987
108,105,2024-02-28 19:20:44.773988
109,106,2024-02-28 19:20:44.774989
110,108,2024-02-28 19:20:44.774989
108,114,2024-02-28 19:20:44.775988
110,119,2024-02-28 19:20:44.776989
110,119,2024-02-28 19:20:44.777989
112,117,2024-02-28 19:20:44.777989
112,113,2024-02-28 19:20:44.778989
80,74,2024-02-28 19:20:44.779990
52,42,2024-02-28 19:20:44.779990
96,86,2024-02-28 19:20:44.780990
116,118,2024-02-28 19:20:44.781992
136,2024-02-28 19:20:44.782990
117,122,2024-02-28 19:20:44.782990
111,115,2024-02-28 19:20:44.783990
124,128,2024-02-28 19:20:44.784991
140,146,2024-02-28 19:20:44.785991
141,145,2024-02-28 19:20:44.786992
138,138,2024-02-28 19:20:44.787992
136,130,2024-02-28 19:20:44.788992
132,123,2024-02-28 19:20:44.788992
129,118,2024-02-28 19:20:44.789991
126,114,2024-02-28 19:20:44.790991
122,109,2024-02-28 19:20:44.790991
118,106,2024-02-28 19:20:44.791992
114,108,2024-02-28 19:20:44.792993
108,109,2024-02-28 19:20:44.793993
104,107,2024-02-28 19:20:44.793993
97,105,2024-02-28 19:20:44.794993
97,110,2024-02-28 19:20:44.795999
95,112,2024-02-28 19:20:44.795999
93,110,2024-02-28 19:20:44.796999
91,107,2024-02-28 19:20:44.798000
92,106,2024-02-28 19:20:44.799000
93,106,2024-02-28 19:20:44.799000
93,107,2024-02-28 19:20:44.800000
93,112,2024-02-28 19:20:44.801000
96,112,2024-02-28 19:20:44.802000
95,111,2024-02-28 19:20:44.802000
97,105,2024-02-28 19:20:44.803001
102,101,2024-02-28 19:20:44.804001
108,102,2024-02-28 19:20:44.805001
109,106,2024-02-28 19:20:44.805001
110,107,2024-02-28 19:20:44.806002
109,2024-02-28 19:20:44.807002
102,93,2024-02-28 19:20:44.808001
100,87,2024-02-28 19:20:44.808001
111,101,2024-02-28 19:20:44.809001
98,87,2024-02-28 19:20:44.809001
72,61,2024-02-28 19:20:44.810510
98,81,2024-02-28 19:20:44.811516
94,87,2024-02-28 19:20:44.811516
109,104,2024-02-28 19:20:44.812516
133,139,2024-02-28 19:20:44.813517
142,160,2024-02-28 19:20:44.814517
144,163,2024-02-28 19:20:44.815517
158,170,2024-02-28 19:20:44.815517
163,165,2024-02-28 19:20:44.816517
160,154,2024-02-28 19:20:44.817518
156,143,2024-02-28 19:20:44.817518
154,133,2024-02-28 19:20:44.818518
147,119,2024-02-28 19:20:44.819518
137,108,2024-02-28 19:20:44.819518
130,102,2024-02-28 19:20:44.820518
121,97,2024-02-28 19:20:44.821518
113,95,2024-02-28 19:20:44.822518
106,93,2024-02-28 19:20:44.822518
96,94,2024-02-28 19:20:44.823519
89,95,2024-02-28 19:20:44.824519
83,97,2024-02-28 19:20:44.825519
83,101,2024-02-28 19:20:44.825519
79,105,2024-02-28 19:20:44.826520
79,107,2024-02-28 19:20:44.827520
79,104,2024-02-28 19:20:44.828521
83,103,2024-02-28 19:20:44.829521
85,104,2024-02-28 19:20:44.830521
107,2024-02-28 19:20:44.830521
68,91,2024-02-28 19:20:44.831521
61,89,2024-02-28 19:20:44.832521
80,101,2024-02-28 19:20:44.833521
101,120,2024-02-28 19:20:44.834521
105,127,2024-02-28 19:20:44.835522
105,128,2024-02-28 19:20:44.836522
107,129,2024-02-28 19:20:44.837522
109,128,2024-02-28 19:20:44.838542
110,121,2024-02-28 19:20:44.838542
114,119,2024-02-28 19:20:44.839523
115,115,2024-02-28 19:20:44.839523
89,79,2024-02-28 19:20:44.840542
66,48,2024-02-28 19:20:44.841528
110,90,2024-02-28 19:20:44.841528
130,118,2024-02-28 19:20:44.842542
144,136,2024-02-28 19:20:44.843525
150,147,2024-02-28 19:20:44.843525
149,142,2024-02-28 19:20:44.844526
150,137,2024-02-28 19:20:44.845524
148,130,2024-02-28 19:20:44.846525
143,124,2024-02-28 19:20:44.847529
134,116,2024-02-28 19:20:44.847529
130,109,2024-02-28 19:20:44.848545
126,103,2024-02-28 19:20:44.849526
120,102,2024-02-28 19:20:44.849526
116,102,2024-02-28 19:20:44.850527
113,102,2024-02-28 19:20:44.851527
111,101,2024-02-28 19:20:44.851527
108,103,2024-02-28 19:20:44.852547
105,104,2024-02-28 19:20:44.853560
105,109,2024-02-28 19:20:44.853560
110,2024-02-28 19:20:44.854578
90,92,2024-02-28 19:20:44.855593
81,88,2024-02-28 19:20:44.855593
93,106,2024-02-28 19:20:44.856606
111,128,2024-02-28 19:20:44.857619
113,132,2024-02-28 19:20:44.857619
111,132,2024-02-28 19:20:44.858649
110,127,2024-02-28 19:20:44.859663
114,118,2024-02-28 19:20:44.859663
112,111,2024-02-28 19:20:44.861060
110,108,2024-02-28 19:20:44.861060
111,109,2024-02-28 19:20:44.862080
109,109,2024-02-28 19:20:44.863093
104,108,2024-02-28 19:20:44.863093
102,109,2024-02-28 19:20:44.864123
101,108,2024-02-28 19:20:44.865138
99,106,2024-02-28 19:20:44.865138
95,106,2024-02-28 19:20:44.866158
99,110,2024-02-28 19:20:44.867317
100,107,2024-02-28 19:20:44.867317
70,71,2024-02-28 19:20:44.868331
45,40,2024-02-28 19:20:44.868331
86,84,2024-02-28 19:20:44.869344
106,117,2024-02-28 19:20:44.870354
120,138,2024-02-28 19:20:44.870354
124,146,2024-02-28 19:20:44.871433
127,145,2024-02-28 19:20:44.872450
125,143,2024-02-28 19:20:44.872450
126,141,2024-02-28 19:20:44.873493
130,137,2024-02-28 19:20:44.874535
132,124,2024-02-28 19:20:44.874535
136,114,2024-02-28 19:20:44.875545
107,2024-02-28 19:20:44.875545
123,83,2024-02-28 19:20:44.876998
112,76,2024-02-28 19:20:44.878013
122,95,2024-02-28 19:20:44.878013
134,115,2024-02-28 19:20:44.879042
131,120,2024-02-28 19:20:44.880058
127,118,2024-02-28 19:20:44.880058
121,116,2024-02-28 19:20:44.881068
116,111,2024-02-28 19:20:44.882112
111,111,2024-02-28 19:20:44.882112
108,113,2024-02-28 19:20:44.883126
106,116,2024-02-28 19:20:44.883126
107,119,2024-02-28 19:20:44.884137
104,118,2024-02-28 19:20:44.885150
104,117,2024-02-28 19:20:44.885150
101,111,2024-02-28 19:20:44.886181
99,106,2024-02-28 19:20:44.887193
94,105,2024-02-28 19:20:44.887193
89,108,2024-02-28 19:20:44.888398
90,109,2024-02-28 19:20:44.889415
94,107,2024-02-28 19:20:44.889415
96,111,2024-02-28 19:20:44.890431
96,114,2024-02-28 19:20:44.891474
98,116,2024-02-28 19:20:44.891474
97,111,2024-02-28 19:20:44.892715
93,107,2024-02-28 19:20:44.893872
98,106,2024-02-28 19:20:44.893872
101,104,2024-02-28 19:20:44.894883
71,71,2024-02-28 19:20:44.895911
48,42,2024-02-28 19:20:44.895911
94,89,2024-02-28 19:20:44.896941
116,117,2024-02-28 19:20:44.897971
134,2024-02-28 19:20:44.897971
118,123,2024-02-28 19:20:44.899002
115,116,2024-02-28 19:20:44.900019
131,128,2024-02-28 19:20:44.900019
149,145,2024-02-28 19:20:44.901049
148,143,2024-02-28 19:20:44.902080
146,136,2024-02-28 19:20:44.902080
146,130,2024-02-28 19:20:44.903098
144,127,2024-02-28 19:20:44.904170
138,124,2024-02-28 19:20:44.904170
131,120,2024-02-28 19:20:44.905198
128,116,2024-02-28 19:20:44.906210
122,113,2024-02-28 19:20:44.907331
118,111,2024-02-28 19:20:44.907331
114,109,2024-02-28 19:20:44.908532
107,108,2024-02-28 19:20:44.908532
106,107,2024-02-28 19:20:44.909564
106,102,2024-02-28 19:20:44.910563
104,99,2024-02-28 19:20:44.910563
102,98,2024-02-28 19:20:44.912013
103,102,2024-02-28 19:20:44.912013
102,103,2024-02-28 19:20:44.913032
101,104,2024-02-28 19:20:44.913032
104,104,2024-02-28 19:20:44.914047
105,105,2024-02-28 19:20:44.915061
101,106,2024-02-28 19:20:44.915061
105,105,2024-02-28 19:20:44.916076
108,104,2024-02-28 19:20:44.917116
107,107,2024-02-28 19:20:44.917116
106,112,2024-02-28 19:20:44.918129
104,113,2024-02-28 19:20:44.918129
105,115,2024-02-28 19:20:44.919141
114,2024-02-28 19:20:44.920151
93,90,2024-02-28 19:20:44.921451
87,79,2024-02-28 19:20:44.921451
102,87,2024-02-28 19:20:44.922511
88,76,2024-02-28 19:20:44.923746
62,59,2024-02-28 19:20:44.923746
80,85,2024-02-28 19:20:44.924775
69,89,2024-02-28 19:20:44.925792
106,132,2024-02-28 19:20:44.925792
127,160,2024-02-28 19:20:44.926809
124,162,2024-02-28 19:20:44.927821
125,165,2024-02-28 19:20:44.928822
139,167,2024-02-28 19:20:44.929901
137,161,2024-02-28 19:20:44.930949
137,150,2024-02-28 19:20:44.930949
138,141,2024-02-28 19:20:44.931969
139,127,2024-02-28 19:20:44.931969
134,114,2024-02-28 19:20:44.933028
128,109,2024-02-28 19:20:44.934068
120,102,2024-02-28 19:20:44.934068
114,98,2024-02-28 19:20:44.935079
114,99,2024-02-28 19:20:44.936092
109,98,2024-02-28 19:20:44.936092
105,97,2024-02-28 19:20:44.937109
101,95,2024-02-28 19:20:44.938123
98,97,2024-02-28 19:20:44.938123
93,101,2024-02-28 19:20:44.939343
92,102,2024-02-28 19:20:44.940357
94,104,2024-02-28 19:20:44.940357
100,102,2024-02-28 19:20:44.941367
104,105,2024-02-28 19:20:44.941367
105,104,2024-02-28 19:20:44.942426
106,2024-02-28 19:20:44.943440
88,89,2024-02-28 19:20:44.943440
85,84,2024-02-28 19:20:44.944455
100,99,2024-02-28 19:20:44.945470
120,121,2024-02-28 19:20:44.945470
124,127,2024-02-28 19:20:44.946498
126,128,2024-02-28 19:20:44.947510
129,129,2024-02-28 19:20:44.948554
130,127,2024-02-28 19:20:44.948554
128,122,2024-02-28 19:20:44.949567
130,123,2024-02-28 19:20:44.949567
127,122,2024-02-28 19:20:44.950580
92,83,2024-02-28 19:20:44.951594
66,48,2024-02-28 19:20:44.951594
107,90,2024-02-28 19:20:44.952618
121,115,2024-02-28 19:20:44.953629
126,136,2024-02-28 19:20:44.954635
128,143,2024-02-28 19:20:44.955649
127,138,2024-02-28 19:20:44.955649
129,133,2024-02-28 19:20:44.956693
128,123,2024-02-28 19:20:44.957707
124,116,2024-02-28 19:20:44.957707
121,109,2024-02-28 19:20:44.958717
116,105,2024-02-28 19:20:44.959731
110,104,2024-02-28 19:20:44.959731
106,109,2024-02-28 19:20:44.960744
105,110,2024-02-28 19:20:44.960744
99,111,2024-02-28 19:20:44.961810
95,113,2024-02-28 19:20:44.962824
94,111,2024-02-28 19:20:44.962824
94,112,2024-02-28 19:20:44.963869
97,108,2024-02-28 19:20:44.964882
108,2024-02-28 19:20:44.964882
80,86,2024-02-28 19:20:44.965892
77,78,2024-02-28 19:20:44.967066
95,95,2024-02-28 19:20:44.967066
120,119,2024-02-28 19:20:44.968097
121,126,2024-02-28 19:20:44.969111
120,126,2024-02-28 19:20:44.969111
116,123,2024-02-28 19:20:44.970386
116,120,2024-02-28 19:20:44.971418
119,114,2024-02-28 19:20:44.972470
118,112,2024-02-28 19:20:44.972470
114,115,2024-02-28 19:20:44.973482
115,117,2024-02-28 19:20:44.973482
114,115,2024-02-28 19:20:44.974495
116,115,2024-02-28 19:20:44.975510
117,116,2024-02-28 19:20:44.975510
115,113,2024-02-28 19:20:44.976522
112,111,2024-02-28 19:20:44.977560
116,114,2024-02-28 19:20:44.977560
112,113,2024-02-28 19:20:44.978571
87,82,2024-02-28 19:20:44.978571
69,62,2024-02-28 19:20:44.979614
82,73,2024-02-28 19:20:44.980629
71,66,2024-02-28 19:20:44.980629
83,78,2024-02-28 19:20:44.981652
115,113,2024-02-28 19:20:44.982691
137,140,2024-02-28 19:20:44.982691
143,157,2024-02-28 19:20:44.983703
141,159,2024-02-28 19:20:44.983703
140,154,2024-02-28 19:20:44.984714
132,145,2024-02-28 19:20:44.986075
126,138,2024-02-28 19:20:44.987106
131,2024-02-28 19:20:44.987106
103,102,2024-02-28 19:20:44.988137
91,84,2024-02-28 19:20:44.989152
103,93,2024-02-28 19:20:44.989152
121,112,2024-02-28 19:20:44.990175
124,113,2024-02-28 19:20:44.991190
119,110,2024-02-28 19:20:44.991190
118,109,2024-02-28 19:20:44.992208
117,110,2024-02-28 19:20:44.992208
115,110,2024-02-28 19:20:44.993237
109,109,2024-02-28 19:20:44.994280
105,110,2024-02-28 19:20:44.994280
102,114,2024-02-28 19:20:44.995296
100,111,2024-02-28 19:20:44.996313
98,107,2024-02-28 19:20:44.996313
99,103,2024-02-28 19:20:44.997328
102,103,2024-02-28 19:20:44.998339
105,103,2024-02-28 19:20:44.998339
104,107,2024-02-28 19:20:44.999377
105,109,2024-02-28 19:20:45.000388
105,108,2024-02-28 19:20:45.000388
104,111,2024-02-28 19:20:45.001890
104,116,2024-02-28 19:20:45.002915
107,118,2024-02-28 19:20:45.003948
107,121,2024-02-28 19:20:45.003948
105,116,2024-02-28 19:20:45.004979
109,113,2024-02-28 19:20:45.005991
107,111,2024-02-28 19:20:45.005991
77,78,2024-02-28 19:20:45.007437
53,47,2024-02-28 19:20:45.008456
96,87,2024-02-28 19:20:45.008456
113,114,2024-02-28 19:20:45.009487
132,2024-02-28 19:20:45.010488
111,123,2024-02-28 19:20:45.010488
105,112,2024-02-28 19:20:45.011937
117,123,2024-02-28 19:20:45.011937
136,140,2024-02-28 19:20:45.012962
138,137,2024-02-28 19:20:45.012962
134,129,2024-02-28 19:20:45.013991
132,126,2024-02-28 19:20:45.015002
128,125,2024-02-28 19:20:45.015002
123,121,2024-02-28 19:20:45.016017
123,117,2024-02-28 19:20:45.017310
122,112,2024-02-28 19:20:45.017310
120,110,2024-02-28 19:20:45.018320
119,106,2024-02-28 19:20:45.018320
115,103,2024-02-28 19:20:45.019340
120,101,2024-02-28 19:20:45.020353
118,99,2024-02-28 19:20:45.021396
117,99,2024-02-28 19:20:45.021396
114,102,2024-02-28 19:20:45.022413
109,105,2024-02-28 19:20:45.022413
105,107,2024-02-28 19:20:45.023437
100,108,2024-02-28 19:20:45.024477
95,111,2024-02-28 19:20:45.024477
98,114,2024-02-28 19:20:45.025490
98,113,2024-02-28 19:20:45.026508
98,111,2024-02-28 19:20:45.027523
99,111,2024-02-28 19:20:45.027523
98,115,2024-02-28 19:20:45.028553
97,118,2024-02-28 19:20:45.029567
101,116,2024-02-28 19:20:45.029567
103,113,2024-02-28 19:20:45.030577
105,110,2024-02-28 19:20:45.030577
112,2024-02-28 19:20:45.031621
84,92,2024-02-28 19:20:45.032824
82,82,2024-02-28 19:20:45.032824
95,94,2024-02-28 19:20:45.033837
83,84,2024-02-28 19:20:45.034851
59,62,2024-02-28 19:20:45.034851
84,80,2024-02-28 19:20:45.035865
80,79,2024-02-28 19:20:45.036880
119,121,2024-02-28 19:20:45.036880
140,147,2024-02-28 19:20:45.037892
138,151,2024-02-28 19:20:45.038905
140,154,2024-02-28 19:20:45.038905
151,166,2024-02-28 19:20:45.039921
152,162,2024-02-28 19:20:45.040935
149,151,2024-02-28 19:20:45.040935
142,140,2024-02-28 19:20:45.041953
140,128,2024-02-28 19:20:45.041953
139,116,2024-02-28 19:20:45.042979
134,105,2024-02-28 19:20:45.043992
129,99,2024-02-28 19:20:45.043992
126,95,2024-02-28 19:20:45.045023
124,93,2024-02-28 19:20:45.046071
123,97,2024-02-28 19:20:45.046071
119,98,2024-02-28 19:20:45.047103
118,94,2024-02-28 19:20:45.048384
118,95,2024-02-28 19:20:45.048384
113,100,2024-02-28 19:20:45.049396
110,110,2024-02-28 19:20:45.050409
102,114,2024-02-28 19:20:45.050409
96,115,2024-02-28 19:20:45.051420
93,114,2024-02-28 19:20:45.051420
92,115,2024-02-28 19:20:45.052467
112,2024-02-28 19:20:45.053479
65,91,2024-02-28 19:20:45.053479
58,78,2024-02-28 19:20:45.054622
72,92,2024-02-28 19:20:45.055637
88,114,2024-02-28 19:20:45.055637
89,124,2024-02-28 19:20:45.056649
89,128,2024-02-28 19:20:45.057664
93,128,2024-02-28 19:20:45.058705
97,120,2024-02-28 19:20:45.058705
100,113,2024-02-28 19:20:45.059720
105,114,2024-02-28 19:20:45.060734
111,109,2024-02-28 19:20:45.060734
84,75,2024-02-28 19:20:45.061754
61,44,2024-02-28 19:20:45.062770
107,85,2024-02-28 19:20:45.062770
134,115,2024-02-28 19:20:45.063985
145,136,2024-02-28 19:20:45.064998
152,145,2024-02-28 19:20:45.066011
147,144,2024-02-28 19:20:45.067026
145,143,2024-02-28 19:20:45.067026
144,136,2024-02-28 19:20:45.068050
141,128,2024-02-28 19:20:45.069065
135,122,2024-02-28 19:20:45.070078
131,119,2024-02-28 19:20:45.070078
129,116,2024-02-28 19:20:45.071092
127,115,2024-02-28 19:20:45.072112
125,116,2024-02-28 19:20:45.072112
122,111,2024-02-28 19:20:45.073144
119,106,2024-02-28 19:20:45.074156
118,107,2024-02-28 19:20:45.074156
111,107,2024-02-28 19:20:45.075219
107,106,2024-02-28 19:20:45.076231
104,2024-02-28 19:20:45.077249
86,82,2024-02-28 19:20:45.077249
80,74,2024-02-28 19:20:45.078263
91,86,2024-02-28 19:20:45.079563
109,111,2024-02-28 19:20:45.079563
106,116,2024-02-28 19:20:45.080592
103,119,2024-02-28 19:20:45.081607
103,124,2024-02-28 19:20:45.081607
105,124,2024-02-28 19:20:45.082630
105,124,2024-02-28 19:20:45.082630
106,122,2024-02-28 19:20:45.083704
106,121,2024-02-28 19:20:45.084717
105,114,2024-02-28 19:20:45.084717
106,108,2024-02-28 19:20:45.085731
104,106,2024-02-28 19:20:45.086743
105,107,2024-02-28 19:20:45.087771
106,106,2024-02-28 19:20:45.088794
105,104,2024-02-28 19:20:45.088794
112,103,2024-02-28 19:20:45.089805
112,105,2024-02-28 19:20:45.089805
76,74,2024-02-28 19:20:45.090834
48,43,2024-02-28 19:20:45.091853
89,84,2024-02-28 19:20:45.091853
110,116,2024-02-28 19:20:45.092867
125,141,2024-02-28 19:20:45.093881
128,149,2024-02-28 19:20:45.093881
127,147,2024-02-28 19:20:45.095128
129,144,2024-02-28 19:20:45.096144
133,139,2024-02-28 19:20:45.096144
130,132,2024-02-28 19:20:45.097162
131,128,2024-02-28 19:20:45.098175
133,119,2024-02-28 19:20:45.098175
113,2024-02-28 19:20:45.099189
109,90,2024-02-28 19:20:45.099189
99,77,2024-02-28 19:20:45.100201
111,93,2024-02-28 19:20:45.101213
126,117,2024-02-28 19:20:45.101213
123,120,2024-02-28 19:20:45.102231
118,119,2024-02-28 19:20:45.103242
113,115,2024-02-28 19:20:45.103242
110,114,2024-02-28 19:20:45.104419
107,112,2024-02-28 19:20:45.105430
108,112,2024-02-28 19:20:45.106510
105,112,2024-02-28 19:20:45.106510
106,110,2024-02-28 19:20:45.107543
105,110,2024-02-28 19:20:45.108557
101,110,2024-02-28 19:20:45.108557
96,109,2024-02-28 19:20:45.109568
95,109,2024-02-28 19:20:45.110569
93,112,2024-02-28 19:20:45.111076
94,112,2024-02-28 19:20:45.112082
96,110,2024-02-28 19:20:45.112082
99,109,2024-02-28 19:20:45.113082
101,106,2024-02-28 19:20:45.114083
106,106,2024-02-28 19:20:45.115083
110,105,2024-02-28 19:20:45.115083
111,105,2024-02-28 19:20:45.116102
109,106,2024-02-28 19:20:45.117144
113,108,2024-02-28 19:20:45.118166
113,109,2024-02-28 19:20:45.118166
83,76,2024-02-28 19:20:45.119166
57,51,2024-02-28 19:20:45.120167
100,92,2024-02-28 19:20:45.121167
122,118,2024-02-28 19:20:45.121167
136,2024-02-28 19:20:45.122617
125,123,2024-02-28 19:20:45.122617
117,114,2024-02-28 19:20:45.123649
131,126,2024-02-28 19:20:45.124661
149,144,2024-02-28 19:20:45.125756
147,144,2024-02-28 19:20:45.125756
141,134,2024-02-28 19:20:45.127070
137,129,2024-02-28 19:20:45.128100
130,126,2024-02-28 19:20:45.128100
123,120,2024-02-28 19:20:45.129113
117,114,2024-02-28 19:20:45.129113
114,111,2024-02-28 19:20:45.130143
114,107,2024-02-28 19:20:45.131158
112,102,2024-02-28 19:20:45.131158
109,98,2024-02-28 19:20:45.132177
106,101,2024-02-28 19:20:45.132177
106,105,2024-02-28 19:20:45.133208
104,103,2024-02-28 19:20:45.134226
102,107,2024-02-28 19:20:45.134226
97,109,2024-02-28 19:20:45.135239
95,110,2024-02-28 19:20:45.136248
95,111,2024-02-28 19:20:45.136248
93,112,2024-02-28 19:20:45.137501
95,111,2024-02-28 19:20:45.137501
99,112,2024-02-28 19:20:45.138554
98,112,2024-02-28 19:20:45.139566
98,111,2024-02-28 19:20:45.139566
101,113,2024-02-28 19:20:45.140575
102,112,2024-02-28 19:20:45.141615
104,114,2024-02-28 19:20:45.141615
103,114,2024-02-28 19:20:45.142844
104,112,2024-02-28 19:20:45.143919
112,2024-02-28 19:20:45.143919
94,96,2024-02-28 19:20:45.144929
88,88,2024-02-28 19:20:45.145961
101,94,2024-02-28 19:20:45.145961
89,81,2024-02-28 19:20:45.146992
70,64,2024-02-28 19:20:45.148023
78,70,2024-02-28 19:20:45.148023
92,89,2024-02-28 19:20:45.149055
85,89,2024-02-28 19:20:45.150071
124,133,2024-02-28 19:20:45.150071
141,156,2024-02-28 19:20:45.151085
140,159,2024-02-28 19:20:45.151085
154,169,2024-02-28 19:20:45.152151
155,166,2024-02-28 19:20:45.153161
152,156,2024-02-28 19:20:45.154176
148,140,2024-02-28 19:20:45.154176
143,126,2024-02-28 19:20:45.155189
137,118,2024-02-28 19:20:45.155189
134,113,2024-02-28 19:20:45.156203
129,107,2024-02-28 19:20:45.157216
127,99,2024-02-28 19:20:45.157216
125,96,2024-02-28 19:20:45.158427
122,97,2024-02-28 19:20:45.158427
115,96,2024-02-28 19:20:45.159454
108,95,2024-02-28 19:20:45.160466
104,92,2024-02-28 19:20:45.160466
103,95,2024-02-28 19:20:45.161477
102,99,2024-02-28 19:20:45.162497
99,105,2024-02-28 19:20:45.162497
97,110,2024-02-28 19:20:45.163508
93,107,2024-02-28 19:20:45.163508
94,109,2024-02-28 19:20:45.164542
111,2024-02-28 19:20:45.165556
80,92,2024-02-28 19:20:45.166569
78,85,2024-02-28 19:20:45.166569
93,102,2024-02-28 19:20:45.167583
108,125,2024-02-28 19:20:45.168614
107,131,2024-02-28 19:20:45.169626
106,134,2024-02-28 19:20:45.169626
111,135,2024-02-28 19:20:45.170742
112,134,2024-02-28 19:20:45.171774
109,128,2024-02-28 19:20:45.171774
116,122,2024-02-28 19:20:45.172807
117,115,2024-02-28 19:20:45.172807
86,77,2024-02-28 19:20:45.174204
54,42,2024-02-28 19:20:45.175218
95,77,2024-02-28 19:20:45.175218
117,102,2024-02-28 19:20:45.176230
127,121,2024-02-28 19:20:45.176230
129,130,2024-02-28 19:20:45.177269
129,131,2024-02-28 19:20:45.178282
128,132,2024-02-28 19:20:45.178282
124,130,2024-02-28 19:20:45.179299
116,126,2024-02-28 19:20:45.180312
114,120,2024-02-28 19:20:45.180312
117,113,2024-02-28 19:20:45.181323
118,109,2024-02-28 19:20:45.181323
118,105,2024-02-28 19:20:45.182371
118,108,2024-02-28 19:20:45.183383
117,110,2024-02-28 19:20:45.183383
113,108,2024-02-28 19:20:45.184394
107,106,2024-02-28 19:20:45.185407
107,104,2024-02-28 19:20:45.185407
106,110,2024-02-28 19:20:45.186418
114,2024-02-28 19:20:45.187444
88,96,2024-02-28 19:20:45.187444
81,89,2024-02-28 19:20:45.188499
96,102,2024-02-28 19:20:45.189799
113,121,2024-02-28 19:20:45.189799
116,125,2024-02-28 19:20:45.190814
116,126,2024-02-28 19:20:45.191834
119,123,2024-02-28 19:20:45.191834
116,122,2024-02-28 19:20:45.192852
116,122,2024-02-28 19:20:45.192852
114,122,2024-02-28 19:20:45.193865
114,118,2024-02-28 19:20:45.194877
110,113,2024-02-28 19:20:45.194877
109,107,2024-02-28 19:20:45.195891
109,104,2024-02-28 19:20:45.196904
113,103,2024-02-28 19:20:45.196904
115,98,2024-02-28 19:20:45.197913
113,95,2024-02-28 19:20:45.197913
115,99,2024-02-28 19:20:45.198964
112,103,2024-02-28 19:20:45.199978
84,73,2024-02-28 19:20:45.199978
55,43,2024-02-28 19:20:45.200988
97,85,2024-02-28 19:20:45.200988
118,120,2024-02-28 19:20:45.202054
129,147,2024-02-28 19:20:45.203065
133,158,2024-02-28 19:20:45.203065
130,154,2024-02-28 19:20:45.204202
127,145,2024-02-28 19:20:45.205343
127,139,2024-02-28 19:20:45.206355
124,130,2024-02-28 19:20:45.207489
122,122,2024-02-28 19:20:45.207489
117,113,2024-02-28 19:20:45.208504
101,2024-02-28 19:20:45.208504
94,82,2024-02-28 19:20:45.209515
86,72,2024-02-28 19:20:45.210516
97,86,2024-02-28 19:20:45.210516
110,111,2024-02-28 19:20:45.211858
109,118,2024-02-28 19:20:45.211858
106,119,2024-02-28 19:20:45.212878
106,118,2024-02-28 19:20:45.212878
106,116,2024-02-28 19:20:45.213889
107,118,2024-02-28 19:20:45.214901
109,118,2024-02-28 19:20:45.214901
107,118,2024-02-28 19:20:45.215911
106,118,2024-02-28 19:20:45.216939
107,119,2024-02-28 19:20:45.216939
104,117,2024-02-28 19:20:45.217952
104,111,2024-02-28 19:20:45.217952
107,109,2024-02-28 19:20:45.218963
111,107,2024-02-28 19:20:45.219977
115,104,2024-02-28 19:20:45.219977
115,103,2024-02-28 19:20:45.221313
114,104,2024-02-28 19:20:45.222336
113,103,2024-02-28 19:20:45.222336
109,104,2024-02-28 19:20:45.223368
106,107,2024-02-28 19:20:45.224382
104,109,2024-02-28 19:20:45.224382
104,108,2024-02-28 19:20:45.225412
113,111,2024-02-28 19:20:45.226426
119,110,2024-02-28 19:20:45.226426
86,76,2024-02-28 19:20:45.227455
56,41,2024-02-28 19:20:45.228469
100,81,2024-02-28 19:20:45.228469
119,112,2024-02-28 19:20:45.229497
134,2024-02-28 19:20:45.230512
123,122,2024-02-28 19:20:45.230512
114,112,2024-02-28 19:20:45.231531
127,128,2024-02-28 19:20:45.231531
146,150,2024-02-28 19:20:45.232574
148,152,2024-02-28 19:20:45.233615
146,145,2024-02-28 19:20:45.233615
142,139,2024-02-28 19:20:45.234628
137,130,2024-02-28 19:20:45.235643
132,120,2024-02-28 19:20:45.235643
126,120,2024-02-28 19:20:45.236989
119,114,2024-02-28 19:20:45.238005
112,110,2024-02-28 19:20:45.238005
109,105,2024-02-28 19:20:45.239015
107,102,2024-02-28 19:20:45.239015
103,103,2024-02-28 19:20:45.240055
100,104,2024-02-28 19:20:45.241067
96,105,2024-02-28 19:20:45.241067
93,108,2024-02-28 19:20:45.242102
89,106,2024-02-28 19:20:45.243116
86,106,2024-02-28 19:20:45.243116
84,105,2024-02-28 19:20:45.244128
86,106,2024-02-28 19:20:45.244128
91,110,2024-02-28 19:20:45.245140
92,113,2024-02-28 19:20:45.246154
93,119,2024-02-28 19:20:45.247165
96,118,2024-02-28 19:20:45.248246
99,112,2024-02-28 19:20:45.249261
103,108,2024-02-28 19:20:45.249261
109,106,2024-02-28 19:20:45.250272
115,104,2024-02-28 19:20:45.251306
118,108,2024-02-28 19:20:45.251306
110,2024-02-28 19:20:45.252505
105,91,2024-02-28 19:20:45.253517
96,81,2024-02-28 19:20:45.254517
105,91,2024-02-28 19:20:45.254517
97,80,2024-02-28 19:20:45.255517
71,56,2024-02-28 19:20:45.256517
88,78,2024-02-28 19:20:45.256517
79,81,2024-02-28 19:20:45.257517
115,127,2024-02-28 19:20:45.258518
134,154,2024-02-28 19:20:45.258518
132,158,2024-02-28 19:20:45.259518
135,159,2024-02-28 19:20:45.260518
144,165,2024-02-28 19:20:45.261518
146,160,2024-02-28 19:20:45.261518
141,145,2024-02-28 19:20:45.262518
140,132,2024-02-28 19:20:45.263519
136,121,2024-02-28 19:20:45.263519
129,113,2024-02-28 19:20:45.264519
124,109,2024-02-28 19:20:45.265519
121,102,2024-02-28 19:20:45.266520
117,100,2024-02-28 19:20:45.267521
113,104,2024-02-28 19:20:45.267521
113,104,2024-02-28 19:20:45.268520
111,101,2024-02-28 19:20:45.269521
108,101,2024-02-28 19:20:45.270520
105,102,2024-02-28 19:20:45.270520
103,102,2024-02-28 19:20:45.271521
100,106,2024-02-28 19:20:45.272522
97,107,2024-02-28 19:20:45.272522
99,104,2024-02-28 19:20:45.273521
98,102,2024-02-28 19:20:45.274522
97,100,2024-02-28 19:20:45.275521
103,2024-02-28 19:20:45.275521
78,89,2024-02-28 19:20:45.276523
72,82,2024-02-28 19:20:45.277522
86,99,2024-02-28 19:20:45.277522
103,127,2024-02-28 19:20:45.278522
106,130,2024-02-28 19:20:45.279522
107,129,2024-02-28 19:20:45.279522
106,127,2024-02-28 19:20:45.280522
108,124,2024-02-28 19:20:45.281522
108,120,2024-02-28 19:20:45.281522
111,115,2024-02-28 19:20:45.282523
111,112,2024-02-28 19:20:45.283524
81,79,2024-02-28 19:20:45.284524
65,60,2024-02-28 19:20:45.285524
73,62,2024-02-28 19:20:45.285524
107,99,2024-02-28 19:20:45.286525
135,128,2024-02-28 19:20:45.287526
144,143,2024-02-28 19:20:45.288526
145,146,2024-02-28 19:20:45.288526
146,148,2024-02-28 19:20:45.289524
146,144,2024-02-28 19:20:45.290525
144,136,2024-02-28 19:20:45.290525
140,130,2024-02-28 19:20:45.291525
135,126,2024-02-28 19:20:45.292525
132,117,2024-02-28 19:20:45.292525
131,110,2024-02-28 19:20:45.293526
122,104,2024-02-28 19:20:45.294526
116,100,2024-02-28 19:20:45.295526
113,100,2024-02-28 19:20:45.295526
113,95,2024-02-28 19:20:45.296532
108,94,2024-02-28 19:20:45.297533
105,98,2024-02-28 19:20:45.297533
100,2024-02-28 19:20:45.298532
83,85,2024-02-28 19:20:45.299533
74,82,2024-02-28 19:20:45.300532
89,99,2024-02-28 19:20:45.300532
108,119,2024-02-28 19:20:45.301532
109,122,2024-02-28 19:20:45.302533
107,122,2024-02-28 19:20:45.303534
109,122,2024-02-28 19:20:45.303534
111,125,2024-02-28 19:20:45.304533
113,124,2024-02-28 19:20:45.305533
114,126,2024-02-28 19:20:45.306535
114,121,2024-02-28 19:20:45.306535
112,117,2024-02-28 19:20:45.307534
111,114,2024-02-28 19:20:45.308535
113,108,2024-02-28 19:20:45.308535
113,107,2024-02-28 19:20:45.309534
112,108,2024-02-28 19:20:45.310535
110,106,2024-02-28 19:20:45.311042
113,106,2024-02-28 19:20:45.312048
111,107,2024-02-28 19:20:45.312048
77,74,2024-02-28 19:20:45.313048
45,41,2024-02-28 19:20:45.314049
88,81,2024-02-28 19:20:45.315050
109,111,2024-02-28 19:20:45.315050
120,132,2024-02-28 19:20:45.316049
126,141,2024-02-28 19:20:45.317049
124,144,2024-02-28 19:20:45.318050
120,142,2024-02-28 19:20:45.318050
119,138,2024-02-28 19:20:45.319050
121,134,2024-02-28 19:20:45.320052
123,125,2024-02-28 19:20:45.320052
124,119,2024-02-28 19:20:45.321050
115,2024-02-28 19:20:45.322051
106,89,2024-02-28 19:20:45.323051
98,79,2024-02-28 19:20:45.323051
111,91,2024-02-28 19:20:45.324051
124,112,2024-02-28 19:20:45.325051
122,119,2024-02-28 19:20:45.326052
120,122,2024-02-28 19:20:45.327052
115,127,2024-02-28 19:20:45.327052
109,125,2024-02-28 19:20:45.328052
104,119,2024-02-28 19:20:45.329052
108,114,2024-02-28 19:20:45.330052
114,107,2024-02-28 19:20:45.330052
112,108,2024-02-28 19:20:45.331316
110,106,2024-02-28 19:20:45.332315
112,103,2024-02-28 19:20:45.333316
113,102,2024-02-28 19:20:45.334316
113,99,2024-02-28 19:20:45.335316
110,105,2024-02-28 19:20:45.336316
105,110,2024-02-28 19:20:45.336316
104,112,2024-02-28 19:20:45.337316
105,111,2024-02-28 19:20:45.338317
102,113,2024-02-28 19:20:45.339318
99,114,2024-02-28 19:20:45.340320
102,116,2024-02-28 19:20:45.341318
100,113,2024-02-28 19:20:45.341318
99,114,2024-02-28 19:20:45.342319
99,117,2024-02-28 19:20:45.343319
97,117,2024-02-28 19:20:45.344319
68,82,2024-02-28 19:20:45.345319
42,49,2024-02-28 19:20:45.346320
80,84,2024-02-28 19:20:45.347318
102,110,2024-02-28 19:20:45.347318
131,2024-02-28 19:20:45.348318
109,124,2024-02-28 19:20:45.349319
103,118,2024-02-28 19:20:45.349319
119,128,2024-02-28 19:20:45.350319
138,148,2024-02-28 19:20:45.351319
142,149,2024-02-28 19:20:45.352320
143,140,2024-02-28 19:20:45.353321
142,129,2024-02-28 19:20:45.354321
138,119,2024-02-28 19:20:45.354321
136,112,2024-02-28 19:20:45.355321
135,108,2024-02-28 19:20:45.356320
133,105,2024-02-28 19:20:45.357320
127,104,2024-02-28 19:20:45.357320
123,106,2024-02-28 19:20:45.358320
117,104,2024-02-28 19:20:45.359322
113,100,2024-02-28 19:20:45.359322
114,100,2024-02-28 19:20:45.360321
113,98,2024-02-28 19:20:45.361321
108,101,2024-02-28 19:20:45.362322
101,107,2024-02-28 19:20:45.362322
102,110,2024-02-28 19:20:45.363322
102,112,2024-02-28 19:20:45.364323
100,114,2024-02-28 19:20:45.364323
98,109,2024-02-28 19:20:45.365323
97,106,2024-02-28 19:20:45.366323
98,112,2024-02-28 19:20:45.367324
95,110,2024-02-28 19:20:45.368323
96,107,2024-02-28 19:20:45.368323
101,110,2024-02-28 19:20:45.369326
105,111,2024-02-28 19:20:45.370324
107,115,2024-02-28 19:20:45.371324
109,116,2024-02-28 19:20:45.372325
112,2024-02-28 19:20:45.373515
92,93,2024-02-28 19:20:45.373515
91,88,2024-02-28 19:20:45.374522
104,99,2024-02-28 19:20:45.375523
90,89,2024-02-28 19:20:45.375523
63,60,2024-02-28 19:20:45.376522
85,78,2024-02-28 19:20:45.377523
79,76,2024-02-28 19:20:45.378524
114,120,2024-02-28 19:20:45.378524
136,150,2024-02-28 19:20:45.379523
133,151,2024-02-28 19:20:45.380523
137,152,2024-02-28 19:20:45.380523
152,162,2024-02-28 19:20:45.381524
151,156,2024-02-28 19:20:45.382524
147,145,2024-02-28 19:20:45.383524
145,136,2024-02-28 19:20:45.383524
144,130,2024-02-28 19:20:45.384524
136,122,2024-02-28 19:20:45.385525
130,114,2024-02-28 19:20:45.386526
127,109,2024-02-28 19:20:45.386526
123,109,2024-02-28 19:20:45.387525
118,107,2024-02-28 19:20:45.388525
114,101,2024-02-28 19:20:45.389525
109,96,2024-02-28 19:20:45.389525
101,96,2024-02-28 19:20:45.390525
97,95,2024-02-28 19:20:45.391526
100,99,2024-02-28 19:20:45.391526
99,99,2024-02-28 19:20:45.392526
99,103,2024-02-28 19:20:45.393527
97,109,2024-02-28 19:20:45.394527
99,109,2024-02-28 19:20:45.394527
96,108,2024-02-28 19:20:45.395527
107,2024-02-28 19:20:45.396533
78,87,2024-02-28 19:20:45.396533
71,81,2024-02-28 19:20:45.397532
88,95,2024-02-28 19:20:45.398533
110,117,2024-02-28 19:20:45.399533
112,124,2024-02-28 19:20:45.399533
111,125,2024-02-28 19:20:45.400533
113,125,2024-02-28 19:20:45.401534
109,125,2024-02-28 19:20:45.401534
105,124,2024-02-28 19:20:45.402535
110,126,2024-02-28 19:20:45.403534
114,119,2024-02-28 19:20:45.404536
82,80,2024-02-28 19:20:45.404536
53,44,2024-02-28 19:20:45.405534
92,76,2024-02-28 19:20:45.406537
114,104,2024-02-28 19:20:45.407853
128,125,2024-02-28 19:20:45.407853
134,138,2024-02-28 19:20:45.409133
133,142,2024-02-28 19:20:45.409133
132,141,2024-02-28 19:20:45.410641
128,137,2024-02-28 19:20:45.410641
126,129,2024-02-28 19:20:45.411675
123,124,2024-02-28 19:20:45.412689
119,120,2024-02-28 19:20:45.412689
116,115,2024-02-28 19:20:45.413724
115,109,2024-02-28 19:20:45.413724
113,105,2024-02-28 19:20:45.414742
111,105,2024-02-28 19:20:45.415754
111,106,2024-02-28 19:20:45.415754
108,105,2024-02-28 19:20:45.416764
102,102,2024-02-28 19:20:45.417778
98,102,2024-02-28 19:20:45.417778
104,2024-02-28 19:20:45.418789
83,88,2024-02-28 19:20:45.418789
81,77,2024-02-28 19:20:45.420073
97,94,2024-02-28 19:20:45.421086
116,115,2024-02-28 19:20:45.421086
120,119,2024-02-28 19:20:45.422102
118,122,2024-02-28 19:20:45.423117
119,126,2024-02-28 19:20:45.423117
120,129,2024-02-28 19:20:45.424327
115,126,2024-02-28 19:20:45.425337
113,120,2024-02-28 19:20:45.426357
111,116,2024-02-28 19:20:45.426357
105,117,2024-02-28 19:20:45.427373
108,114,2024-02-28 19:20:45.428385
115,107,2024-02-28 19:20:45.428385
117,101,2024-02-28 19:20:45.429395
116,96,2024-02-28 19:20:45.429395
115,97,2024-02-28 19:20:45.430445
118,106,2024-02-28 19:20:45.431458
119,111,2024-02-28 19:20:45.431458
84,79,2024-02-28 19:20:45.432475
53,48,2024-02-28 19:20:45.432475
94,88,2024-02-28 19:20:45.433487
114,116,2024-02-28 19:20:45.434499
124,139,2024-02-28 19:20:45.434499
131,149,2024-02-28 19:20:45.435506
129,146,2024-02-28 19:20:45.436730
130,142,2024-02-28 19:20:45.436730
133,137,2024-02-28 19:20:45.437742
135,134,2024-02-28 19:20:45.437742
132,127,2024-02-28 19:20:45.438751
128,120,2024-02-28 19:20:45.440242
117,2024-02-28 19:20:45.441255
107,94,2024-02-28 19:20:45.441255
95,81,2024-02-28 19:20:45.442273
110,87,2024-02-28 19:20:45.443287
128,108,2024-02-28 19:20:45.444332
128,118,2024-02-28 19:20:45.444332
126,120,2024-02-28 19:20:45.445343
123,117,2024-02-28 19:20:45.446361
115,114,2024-02-28 19:20:45.447379
111,117,2024-02-28 19:20:45.447379
110,114,2024-02-28 19:20:45.448410
105,114,2024-02-28 19:20:45.449422
104,116,2024-02-28 19:20:45.449422
100,118,2024-02-28 19:20:45.450433
97,116,2024-02-28 19:20:45.450433
95,114,2024-02-28 19:20:45.451490
86,112,2024-02-28 19:20:45.452511
84,108,2024-02-28 19:20:45.453522
83,103,2024-02-28 19:20:45.453522
84,101,2024-02-28 19:20:45.454535
86,99,2024-02-28 19:20:45.454535
90,99,2024-02-28 19:20:45.455887
94,101,2024-02-28 19:20:45.457105
104,104,2024-02-28 19:20:45.458119
107,108,2024-02-28 19:20:45.458119
104,111,2024-02-28 19:20:45.459154
112,115,2024-02-28 19:20:45.460169
117,116,2024-02-28 19:20:45.460169
86,82,2024-02-28 19:20:45.461184
68,62,2024-02-28 19:20:45.461184
71,61,2024-02-28 19:20:45.462206
108,100,2024-02-28 19:20:45.463221
130,2024-02-28 19:20:45.463221
123,129,2024-02-28 19:20:45.464230
118,123,2024-02-28 19:20:45.464230
132,134,2024-02-28 19:20:45.465249
153,150,2024-02-28 19:20:45.466260
153,148,2024-02-28 19:20:45.467347
150,139,2024-02-28 19:20:45.467347
150,131,2024-02-28 19:20:45.468358
147,127,2024-02-28 19:20:45.469386
136,121,2024-02-28 19:20:45.469386
127,115,2024-02-28 19:20:45.470418
124,107,2024-02-28 19:20:45.471911
120,105,2024-02-28 19:20:45.471911
122,105,2024-02-28 19:20:45.472927
118,108,2024-02-28 19:20:45.472927
112,107,2024-02-28 19:20:45.474016
107,105,2024-02-28 19:20:45.475030
102,102,2024-02-28 19:20:45.475030
103,101,2024-02-28 19:20:45.476043
100,104,2024-02-28 19:20:45.477056
96,106,2024-02-28 19:20:45.477056
95,109,2024-02-28 19:20:45.478081
88,110,2024-02-28 19:20:45.479096
83,110,2024-02-28 19:20:45.479096
82,111,2024-02-28 19:20:45.480110
79,113,2024-02-28 19:20:45.480110
80,108,2024-02-28 19:20:45.481126
84,104,2024-02-28 19:20:45.482145
89,105,2024-02-28 19:20:45.482145
90,103,2024-02-28 19:20:45.483155
95,103,2024-02-28 19:20:45.483155
105,104,2024-02-28 19:20:45.484204
112,2024-02-28 19:20:45.485217
95,95,2024-02-28 19:20:45.486248
89,90,2024-02-28 19:20:45.524548
105,105,2024-02-28 19:20:45.524548
98,97,2024-02-28 19:20:45.525559
72,69,2024-02-28 19:20:45.526584
94,86,2024-02-28 19:20:45.526584
84,77,2024-02-28 19:20:45.527618
121,117,2024-02-28 19:20:45.528632
144,145,2024-02-28 19:20:45.528632
142,145,2024-02-28 19:20:45.529643
143,143,2024-02-28 19:20:45.529643
158,153,2024-02-28 19:20:45.530682
158,150,2024-02-28 19:20:45.531720
153,146,2024-02-28 19:20:45.531720
148,138,2024-02-28 19:20:45.532734
141,130,2024-02-28 19:20:45.533751
135,124,2024-02-28 19:20:45.533751
129,111,2024-02-28 19:20:45.534763
127,106,2024-02-28 19:20:45.535816
122,103,2024-02-28 19:20:45.536841
117,98,2024-02-28 19:20:45.536841
110,96,2024-02-28 19:20:45.537852
104,97,2024-02-28 19:20:45.538982
103,100,2024-02-28 19:20:45.538982
101,103,2024-02-28 19:20:45.539993
101,106,2024-02-28 19:20:45.541012
100,109,2024-02-28 19:20:45.541012
97,111,2024-02-28 19:20:45.542030
97,112,2024-02-28 19:20:45.543053
94,114,2024-02-28 19:20:45.543053
93,115,2024-02-28 19:20:45.544070
113,2024-02-28 19:20:45.545082
79,93,2024-02-28 19:20:45.546098
75,83,2024-02-28 19:20:45.546098
88,93,2024-02-28 19:20:45.547121
103,116,2024-02-28 19:20:45.548135
104,124,2024-02-28 19:20:45.549134
103,125,2024-02-28 19:20:45.549134
103,125,2024-02-28 19:20:45.550133
104,121,2024-02-28 19:20:45.551134
102,113,2024-02-28 19:20:45.552135
107,112,2024-02-28 19:20:45.552135
109,109,2024-02-28 19:20:45.553135
80,76,2024-02-28 19:20:45.554134
53,46,2024-02-28 19:20:45.554134
94,83,2024-02-28 19:20:45.555135
115,111,2024-02-28 19:20:45.556136
129,135,2024-02-28 19:20:45.557136
138,146,2024-02-28 19:20:45.557136
141,148,2024-02-28 19:20:45.558136
142,145,2024-02-28 19:20:45.559135
144,137,2024-02-28 19:20:45.559135
146,129,2024-02-28 19:20:45.560136
145,122,2024-02-28 19:20:45.561136
141,116,2024-02-28 19:20:45.561136
134,111,2024-02-28 19:20:45.562137
130,105,2024-02-28 19:20:45.563136
128,102,2024-02-28 19:20:45.563136
127,103,2024-02-28 19:20:45.564137
123,102,2024-02-28 19:20:45.565138
120,96,2024-02-28 19:20:45.566138
115,95,2024-02-28 19:20:45.567139
114,103,2024-02-28 19:20:45.568138
106,2024-02-28 19:20:45.569139
84,89,2024-02-28 19:20:45.569139
76,84,2024-02-28 19:20:45.570138
88,104,2024-02-28 19:20:45.571139
104,126,2024-02-28 19:20:45.571139
99,124,2024-02-28 19:20:45.572139
97,122,2024-02-28 19:20:45.573138
95,123,2024-02-28 19:20:45.573138
96,122,2024-02-28 19:20:45.574139
93,118,2024-02-28 19:20:45.575139
96,117,2024-02-28 19:20:45.576140
96,116,2024-02-28 19:20:45.576140
102,113,2024-02-28 19:20:45.577140
102,110,2024-02-28 19:20:45.578140
102,108,2024-02-28 19:20:45.578140
103,103,2024-02-28 19:20:45.579140
102,100,2024-02-28 19:20:45.580143
103,101,2024-02-28 19:20:45.581141
110,108,2024-02-28 19:20:45.581141
110,110,2024-02-28 19:20:45.582141
84,80,2024-02-28 19:20:45.583141
56,48,2024-02-28 19:20:45.583141
96,89,2024-02-28 19:20:45.584142
120,118,2024-02-28 19:20:45.585142
134,140,2024-02-28 19:20:45.586144
143,149,2024-02-28 19:20:45.587142
144,148,2024-02-28 19:20:45.587142
143,144,2024-02-28 19:20:45.588142
139,136,2024-02-28 19:20:45.589143
139,129,2024-02-28 19:20:45.590143
134,121,2024-02-28 19:20:45.590143
133,119,2024-02-28 19:20:45.591143
114,2024-02-28 19:20:45.592144
110,90,2024-02-28 19:20:45.593143
101,74,2024-02-28 19:20:45.593143
116,84,2024-02-28 19:20:45.594144
131,110,2024-02-28 19:20:45.595144
127,120,2024-02-28 19:20:45.595144
119,124,2024-02-28 19:20:45.596149
118,124,2024-02-28 19:20:45.597149
115,121,2024-02-28 19:20:45.598150
107,116,2024-02-28 19:20:45.598150
99,115,2024-02-28 19:20:45.599150
96,109,2024-02-28 19:20:45.600150
95,106,2024-02-28 19:20:45.601150
96,106,2024-02-28 19:20:45.601150
93,107,2024-02-28 19:20:45.602151
88,109,2024-02-28 19:20:45.603151
86,109,2024-02-28 19:20:45.604151
83,109,2024-02-28 19:20:45.604151
85,113,2024-02-28 19:20:45.605151
87,113,2024-02-28 19:20:45.606153
85,113,2024-02-28 19:20:45.607152
89,114,2024-02-28 19:20:45.607152
96,113,2024-02-28 19:20:45.608152
100,112,2024-02-28 19:20:45.609155
101,112,2024-02-28 19:20:45.609155
101,107,2024-02-28 19:20:45.610665
106,108,2024-02-28 19:20:45.610665
108,107,2024-02-28 19:20:45.611672
82,73,2024-02-28 19:20:45.612674
58,41,2024-02-28 19:20:45.613672
99,78,2024-02-28 19:20:45.613672
120,110,2024-02-28 19:20:45.614672
132,2024-02-28 19:20:45.615675
127,125,2024-02-28 19:20:45.615675
120,116,2024-02-28 19:20:45.616672
132,127,2024-02-28 19:20:45.617674
149,144,2024-02-28 19:20:45.618674
152,149,2024-02-28 19:20:45.618674
152,145,2024-02-28 19:20:45.619673
148,136,2024-02-28 19:20:45.620674
148,131,2024-02-28 19:20:45.621674
143,122,2024-02-28 19:20:45.621674
137,117,2024-02-28 19:20:45.622674
130,111,2024-02-28 19:20:45.623675
123,106,2024-02-28 19:20:45.624675
120,104,2024-02-28 19:20:45.624675
119,103,2024-02-28 19:20:45.625675
116,101,2024-02-28 19:20:45.626679
110,103,2024-02-28 19:20:45.627675
106,104,2024-02-28 19:20:45.627675
101,107,2024-02-28 19:20:45.628676
99,105,2024-02-28 19:20:45.629676
100,103,2024-02-28 19:20:45.630676
97,103,2024-02-28 19:20:45.630676
94,103,2024-02-28 19:20:45.631676
93,99,2024-02-28 19:20:45.632677
91,101,2024-02-28 19:20:45.632677
88,108,2024-02-28 19:20:45.633676
87,113,2024-02-28 19:20:45.634679
90,113,2024-02-28 19:20:45.635678
